mode	ox/red	error	control changes		time/s	control/V	Ewe/V	<I>/mA		(Q-Qo)/C	I Range		Pwe/W	Rwe/Ohm	
3	0	0	1	0	0.000000000000000E+000	0.0000000E+000	4.4925192E-001	0.000000000000000E+000	0	0.0000000E+000	14	0	0.0000000E+000	0.0000000E+000
3	0	0	0	0	2.999979924214131E+001	9.0028149E-001	4.4944274E-001	0.000000000000000E+000	0	0.0000000E+000	14	0	0.0000000E+000	0.0000000E+000
2	1	0	1	0	3.003059924136323E+001	8.9889687E-001	8.9891583E-001	2.392159340282279E-002	0	7.3228370E-007	13	0	2.1503500E-005	3.7577590E+004
2	1	0	1	0	3.006449924050685E+001	8.9720500E-001	8.9718795E-001	1.544695207020408E-002	0	1.2870444E-006	13	0	1.3858819E-005	5.8081875E+004
2	1	0	1	0	3.012609923895070E+001	8.9412487E-001	8.9408576E-001	9.671767160696072E-003	0	2.0375594E-006	13	0	8.6473892E-006	9.2442852E+004
2	1	0	1	0	3.018769923739455E+001	8.9104491E-001	8.9099318E-001	7.379251460973478E-003	0	2.5524942E-006	13	0	6.5748627E-006	1.2074303E+005
2	1	0	1	0	3.024909923584346E+001	8.8797492E-001	8.8793671E-001	6.076598348473572E-003	0	2.9583625E-006	13	0	5.3956346E-006	1.4612397E+005
2	1	0	1	0	3.031069923428731E+001	8.8489485E-001	8.8486660E-001	5.193049919904651E-003	0	3.2996029E-006	13	0	4.5951565E-006	1.7039439E+005
2	1	0	1	0	3.037229923273117E+001	8.8181490E-001	8.8182092E-001	4.555731792753787E-003	0	3.5946587E-006	13	0	4.0173395E-006	1.9356295E+005
2	1	0	1	0	3.044929923078598E+001	8.7796563E-001	8.7798852E-001	3.931549532538020E-003	0	3.9145793E-006	13	0	3.4518553E-006	2.2331870E+005
2	1	0	1	0	3.052609922884585E+001	8.7412483E-001	8.7409133E-001	3.459192608991152E-003	0	4.2004385E-006	14	0	3.0236502E-006	2.5268652E+005
2	1	0	1	0	3.058769922728970E+001	8.7104481E-001	8.7098736E-001	3.159661986185671E-003	0	4.4016033E-006	14	0	2.7520257E-006	2.7565841E+005
2	1	0	1	0	3.064929922573356E+001	8.6796486E-001	8.6792296E-001	2.905951772606812E-003	0	4.5858624E-006	14	0	2.5221423E-006	2.9867081E+005
2	1	0	1	0	3.071089922417741E+001	8.6488485E-001	8.6481661E-001	2.686359035144380E-003	0	4.7557310E-006	14	0	2.3232078E-006	3.2192891E+005
2	1	0	1	0	3.077249922262126E+001	8.6180478E-001	8.6167526E-001	2.492563468760457E-003	0	4.9130649E-006	14	0	2.1477804E-006	3.4569844E+005
2	1	0	1	0	3.083389922107017E+001	8.5873485E-001	8.5865170E-001	2.325335183621637E-003	0	5.0589169E-006	14	0	1.9966531E-006	3.6925931E+005
2	1	0	1	0	3.089549921951402E+001	8.5565490E-001	8.5551387E-001	2.174797405438245E-003	0	5.1956767E-006	14	0	1.8605693E-006	3.9337634E+005
2	1	0	1	0	3.095709921795788E+001	8.5257477E-001	8.5250378E-001	2.039287967791716E-003	0	5.3236304E-006	14	0	1.7385007E-006	4.1803991E+005
2	1	0	1	0	3.101869921640173E+001	8.4949481E-001	8.4939170E-001	1.917504887436902E-003	0	5.4437664E-006	14	0	1.6287128E-006	4.4296716E+005
2	1	0	1	0	3.108009921485063E+001	8.4642476E-001	8.4641957E-001	1.808552982397028E-003	0	5.5564296E-006	14	0	1.5307946E-006	4.6800928E+005
2	1	0	1	0	3.114169921329449E+001	8.4334481E-001	8.4328175E-001	1.706997028920583E-003	0	5.6631120E-006	14	0	1.4394794E-006	4.9401478E+005
2	1	0	1	0	3.120329921173834E+001	8.4026486E-001	8.4024423E-001	1.613557584069848E-003	0	5.7637958E-006	14	0	1.3557825E-006	5.2074016E+005
2	1	0	1	0	3.126489921018219E+001	8.3718479E-001	8.3713835E-001	1.527727160133191E-003	0	5.8589926E-006	14	0	1.2789191E-006	5.4796325E+005
2	1	0	1	0	3.132649920862605E+001	8.3410484E-001	8.3406335E-001	1.447982216618845E-003	0	5.9491981E-006	14	0	1.2077089E-006	5.7601769E+005
2	1	0	1	0	3.138789920707495E+001	8.3103484E-001	8.3097774E-001	1.375594634012886E-003	0	6.0344305E-006	14	0	1.1430885E-006	6.0408619E+005
2	1	0	1	0	3.144949920551881E+001	8.2795477E-001	8.2792592E-001	1.307616489347457E-003	0	6.1157039E-006	14	0	1.0826096E-006	6.3315650E+005
2	1	0	1	0	3.151109920396266E+001	8.2487476E-001	8.2481349E-001	1.244471296805668E-003	0	6.1929181E-006	14	0	1.0264567E-006	6.6278225E+005
2	1	0	1	0	3.157269920240651E+001	8.2179475E-001	8.2172132E-001	1.182740913924884E-003	0	6.2663612E-006	14	0	9.7188342E-007	6.9476019E+005
2	1	0	1	0	3.163409920085542E+001	8.1872475E-001	8.1867284E-001	1.129019833959841E-003	0	6.3360817E-006	14	0	9.2429786E-007	7.2511819E+005
2	1	0	1	0	3.169569919929927E+001	8.1564480E-001	8.1559449E-001	1.078128929432004E-003	0	6.4028827E-006	14	0	8.7931602E-007	7.5649069E+005
2	1	0	1	0	3.175729919774312E+001	8.1256479E-001	8.1249106E-001	1.027482535139620E-003	0	6.4665651E-006	14	0	8.3482036E-007	7.9075900E+005
2	1	0	1	0	3.181889919618698E+001	8.0948466E-001	8.0944127E-001	9.828659007397062E-004	0	6.5273493E-006	14	0	7.9557225E-007	8.2355206E+005
2	1	0	1	0	3.188049919463083E+001	8.0640477E-001	8.0633944E-001	9.400366051935016E-004	0	6.5855029E-006	14	0	7.5798857E-007	8.5777450E+005
2	1	0	1	0	3.194189919307973E+001	8.0333471E-001	8.0328119E-001	8.997431130437308E-004	0	6.6408575E-006	14	0	7.2274673E-007	8.9278950E+005
2	1	0	1	0	3.200349919152359E+001	8.0025470E-001	8.0022514E-001	8.613840789475765E-004	0	6.6940597E-006	14	0	6.8930120E-007	9.2899925E+005
2	1	0	1	0	3.206509918996744E+001	7.9717475E-001	7.9710865E-001	8.240698839829599E-004	0	6.7449810E-006	14	0	6.5687323E-007	9.6728281E+005
2	1	0	1	0	3.212669918841129E+001	7.9409474E-001	7.9407156E-001	7.922055218270553E-004	0	6.7937681E-006	14	0	6.2906787E-007	1.0023555E+006
2	1	0	1	0	3.218809918686020E+001	7.9102474E-001	7.9101694E-001	7.591494618532646E-004	0	6.8403033E-006	14	0	6.0050007E-007	1.0419779E+006
2	1	0	1	0	3.224969918530405E+001	7.8794461E-001	7.8790617E-001	7.289256601569257E-004	0	6.8851696E-006	14	0	5.7432504E-007	1.0809143E+006
2	1	0	1	0	3.231129918374791E+001	7.8486466E-001	7.8485644E-001	7.011960198311023E-004	0	6.9282214E-006	14	0	5.5033820E-007	1.1193110E+006
2	1	0	1	0	3.237289918219176E+001	7.8178471E-001	7.8174961E-001	6.723733082156999E-004	0	6.9695839E-006	14	0	5.2562757E-007	1.1626720E+006
2	1	0	1	0	3.243449918063561E+001	7.7870470E-001	7.7863699E-001	6.455842630745832E-004	0	7.0092606E-006	14	0	5.0267579E-007	1.2060966E+006
2	1	0	1	0	3.249589917908452E+001	7.7563471E-001	7.7558106E-001	6.206002924421311E-004	0	7.0472665E-006	14	0	4.8132586E-007	1.2497273E+006
2	1	0	1	0	3.255749917752837E+001	7.7255470E-001	7.7249283E-001	5.996132067562256E-004	0	7.0840106E-006	14	0	4.6319690E-007	1.2883186E+006
2	1	0	1	0	3.261909917597222E+001	7.6947469E-001	7.6945394E-001	5.767814578440712E-004	0	7.1193467E-006	14	0	4.4380675E-007	1.3340476E+006
2	1	0	1	0	3.268069917441608E+001	7.6639462E-001	7.6636881E-001	5.552153813042967E-004	0	7.1533836E-006	14	0	4.2549974E-007	1.3803090E+006
2	1	0	1	0	3.274209917286498E+001	7.6332468E-001	7.6333535E-001	5.353890444426083E-004	0	7.1859440E-006	14	0	4.0868139E-007	1.4257583E+006
2	1	0	1	0	3.280369917130884E+001	7.6024461E-001	7.6023889E-001	5.174893997554435E-004	0	7.2174998E-006	14	0	3.9341558E-007	1.4690908E+006
2	1	0	1	0	3.286529916975269E+001	7.5716466E-001	7.5715101E-001	4.976222497385047E-004	0	7.2478852E-006	14	0	3.7677518E-007	1.5215378E+006
2	1	0	1	0	3.292689916819654E+001	7.5408471E-001	7.5405860E-001	4.796025828996721E-004	0	7.2771372E-006	14	0	3.6164846E-007	1.5722571E+006
2	1	0	1	0	3.298849916664039E+001	7.5100464E-001	7.5100130E-001	4.644044756334370E-004	0	7.3053588E-006	14	0	3.4876837E-007	1.6171276E+006
2	1	0	1	0	3.304989916508930E+001	7.4793464E-001	7.4788898E-001	4.468269720999318E-004	0	7.3324272E-006	14	0	3.3417697E-007	1.6737776E+006
2	1	0	1	0	3.311149916353315E+001	7.4485457E-001	7.4483407E-001	4.315146359142421E-004	0	7.3586421E-006	14	0	3.2140679E-007	1.7260923E+006
2	1	0	1	0	3.317309916197701E+001	7.4177456E-001	7.4172813E-001	4.170638469496602E-004	0	7.3839660E-006	14	0	3.0934800E-007	1.7784523E+006
2	1	0	1	0	3.323469916042086E+001	7.3869461E-001	7.3866946E-001	4.024250502814193E-004	0	7.4084046E-006	14	0	2.9725911E-007	1.8355454E+006
2	1	0	1	0	3.329609915886977E+001	7.3562461E-001	7.3559588E-001	3.904103221181081E-004	0	7.4318573E-006	14	0	2.8718424E-007	1.8841610E+006
2	1	0	1	0	3.335769915731362E+001	7.3254460E-001	7.3249310E-001	3.756096857253765E-004	0	7.4546610E-006	14	0	2.7513150E-007	1.9501444E+006
2	1	0	1	0	3.341929915575747E+001	7.2946459E-001	7.2943240E-001	3.650936238473144E-004	0	7.4766790E-006	14	0	2.6631113E-007	1.9979325E+006
2	1	0	1	0	3.348089915420132E+001	7.2638458E-001	7.2636378E-001	3.536581815110048E-004	0	7.4979716E-006	14	0	2.5688450E-007	2.0538583E+006
2	1	0	1	0	3.354249915264518E+001	7.2330457E-001	7.2328252E-001	3.429215718860762E-004	0	7.5185167E-006	14	0	2.4802918E-007	2.1091778E+006
2	1	0	1	0	3.360389915109408E+001	7.2023457E-001	7.2024101E-001	3.320141737085465E-004	0	7.5382191E-006	14	0	2.3913023E-007	2.1693080E+006
2	1	0	1	0	3.366549914953794E+001	7.1715456E-001	7.1714449E-001	3.197743300331754E-004	0	7.5574403E-006	14	0	2.2932440E-007	2.2426580E+006
2	1	0	1	0	3.372709914798179E+001	7.1407455E-001	7.1405756E-001	3.093941331012776E-004	0	7.5760136E-006	14	0	2.2092522E-007	2.3079220E+006
2	1	0	1	0	3.378869914642564E+001	7.1099460E-001	7.1100992E-001	2.999522890972952E-004	0	7.5939356E-006	14	0	2.1326905E-007	2.3704100E+006
2	1	0	1	0	3.385009914487455E+001	7.0792454E-001	7.0784795E-001	2.892174047818118E-004	0	7.6111269E-006	14	0	2.0472194E-007	2.4474598E+006
2	1	0	1	0	3.391169914331840E+001	7.0484459E-001	7.0482945E-001	2.813672450386545E-004	0	7.6278689E-006	14	0	1.9831592E-007	2.5050160E+006
2	1	0	1	0	3.397329914176225E+001	7.0176464E-001	7.0170784E-001	2.710022025588176E-004	0	7.6440783E-006	14	0	1.9016437E-007	2.5893068E+006
2	1	0	1	0	3.403489914020611E+001	6.9868451E-001	6.9862068E-001	2.624457054732020E-004	0	7.6597662E-006	14	0	1.8335000E-007	2.6619628E+006
2	1	0	1	0	3.409649913864996E+001	6.9560456E-001	6.9553059E-001	2.544178276893130E-004	0	7.6749193E-006	14	0	1.7695538E-007	2.7338123E+006
2	1	0	1	0	3.415789913709887E+001	6.9253457E-001	6.9245476E-001	2.479367286357588E-004	0	7.6895021E-006	14	0	1.7168497E-007	2.7928688E+006
2	1	0	1	0	3.421949913554272E+001	6.8945456E-001	6.8939334E-001	2.405714232034499E-004	0	7.7037730E-006	14	0	1.6584833E-007	2.8656493E+006
2	1	0	1	0	3.428109913398657E+001	6.8637455E-001	6.8637401E-001	2.324527855467108E-004	0	7.7175864E-006	14	0	1.5954954E-007	2.9527460E+006
2	1	0	1	0	3.434269913243043E+001	6.8329453E-001	6.8327868E-001	2.253811756726086E-004	0	7.7309296E-006	14	0	1.5399816E-007	3.0316583E+006
2	1	0	1	0	3.440419913087680E+001	6.8022013E-001	6.8020648E-001	2.201869871118101E-004	0	7.7438135E-006	14	0	1.4977262E-007	3.0892220E+006
2	1	0	1	0	3.446569912932318E+001	6.7714560E-001	6.7710799E-001	2.141364198684731E-004	0	7.7563254E-006	14	0	1.4499348E-007	3.1620403E+006
2	1	0	1	0	3.452729912776704E+001	6.7406559E-001	6.7401069E-001	2.059731433059799E-004	0	7.7685108E-006	14	0	1.3882810E-007	3.2723233E+006
2	1	0	1	0	3.458889912621089E+001	6.7098558E-001	6.7096817E-001	2.026148756995518E-004	0	7.7803297E-006	14	0	1.3594813E-007	3.3115445E+006
2	1	0	1	0	3.465049912465474E+001	6.6790563E-001	6.6785485E-001	1.964140975794893E-004	0	7.7917894E-006	14	0	1.3117611E-007	3.4002388E+006
2	1	0	1	0	3.471189912310365E+001	6.6483557E-001	6.6476625E-001	1.892369715918107E-004	0	7.8028042E-006	14	0	1.2579835E-007	3.5128773E+006
2	1	0	1	0	3.477349912154750E+001	6.6175562E-001	6.6172147E-001	1.854973925115152E-004	0	7.8135945E-006	14	0	1.2274761E-007	3.5672818E+006
2	1	0	1	0	3.483509911999136E+001	6.5867561E-001	6.5862584E-001	1.796372576818688E-004	0	7.8240919E-006	14	0	1.1831374E-007	3.6664213E+006
2	1	0	1	0	3.489669911843521E+001	6.5559554E-001	6.5555066E-001	1.746242109340744E-004	0	7.8342373E-006	14	0	1.1447501E-007	3.7540650E+006
2	1	0	1	0	3.495829911687906E+001	6.5251559E-001	6.5247411E-001	1.689355461520817E-004	0	7.8440789E-006	14	0	1.1022607E-007	3.8622665E+006
2	1	0	1	0	3.501969911532797E+001	6.4944553E-001	6.4942867E-001	1.653370261712292E-004	0	7.8535704E-006	14	0	1.0737460E-007	3.9279083E+006
2	1	0	1	0	3.508129911377182E+001	6.4636552E-001	6.4633167E-001	1.615479628727127E-004	0	7.8628691E-006	14	0	1.0441357E-007	4.0008655E+006
2	1	0	1	0	3.514289911221567E+001	6.4328551E-001	6.4321804E-001	1.555949297372486E-004	0	7.8718513E-006	14	0	1.0008146E-007	4.1339268E+006
2	1	0	1	0	3.520449911065953E+001	6.4020556E-001	6.4019305E-001	1.505788663247302E-004	0	7.8805442E-006	14	0	9.6399546E-008	4.2515465E+006
2	1	0	1	0	3.526589910910843E+001	6.3713557E-001	6.3715369E-001	1.488531252011238E-004	0	7.8888852E-006	14	0	9.4842321E-008	4.2804185E+006
2	1	0	1	0	3.532749910755228E+001	6.3405550E-001	6.3399243E-001	1.441793662167899E-004	0	7.8970988E-006	14	0	9.1408630E-008	4.3972480E+006
2	1	0	1	0	3.538909910599614E+001	6.3097554E-001	6.3097519E-001	1.378176959248051E-004	0	7.9050114E-006	14	0	8.6959545E-008	4.5783320E+006
2	1	0	1	0	3.545069910443999E+001	6.2789553E-001	6.2787992E-001	1.360014173609442E-004	0	7.9126521E-006	14	0	8.5392557E-008	4.6167160E+006
2	1	0	1	0	3.551229910288384E+001	6.2481552E-001	6.2474090E-001	1.298358712778494E-004	0	7.9200572E-006	14	0	8.1113782E-008	4.8117740E+006
2	1	0	1	0	3.557369910133275E+001	6.2174553E-001	6.2170041E-001	1.276285457707659E-004	0	7.9271704E-006	14	0	7.9346719E-008	4.8711705E+006
2	1	0	1	0	3.563529909977660E+001	6.1866552E-001	6.1858052E-001	1.236060629523892E-004	0	7.9341607E-006	14	0	7.6460303E-008	5.0044515E+006
2	1	0	1	0	3.569689909822046E+001	6.1558557E-001	6.1554104E-001	1.193700403051411E-004	0	7.9409119E-006	14	0	7.3477160E-008	5.1565790E+006
2	1	0	1	0	3.575849909666431E+001	6.1250550E-001	6.1246657E-001	1.191883906265401E-004	0	7.9474530E-006	14	0	7.2998908E-008	5.1386430E+006
2	1	0	1	0	3.581989909511321E+001	6.0943550E-001	6.0940003E-001	1.145201489415257E-004	0	7.9537549E-006	14	0	6.9788584E-008	5.3213345E+006
2	1	0	1	0	3.588149909355707E+001	6.0635549E-001	6.0630918E-001	1.092004753770639E-004	0	7.9599167E-006	14	0	6.6209253E-008	5.5522575E+006
2	1	0	1	0	3.594309909200092E+001	6.0327548E-001	6.0327119E-001	1.072017485261858E-004	0	7.9658248E-006	14	0	6.4671724E-008	5.6274380E+006
2	1	0	1	0	3.600469909044477E+001	6.0019553E-001	6.0014349E-001	1.031434121298764E-004	0	7.9715492E-006	14	0	6.1900849E-008	5.8185345E+006
2	1	0	1	0	3.606629908888863E+001	5.9711546E-001	5.9708983E-001	1.016044591841446E-004	0	7.9770807E-006	14	0	6.0666991E-008	5.8766105E+006
2	1	0	1	0	3.612769908733753E+001	5.9404552E-001	5.9402269E-001	9.723226686204103E-005	0	7.9823767E-006	14	0	5.7758172E-008	6.1093165E+006
2	1	0	1	0	3.618929908578139E+001	5.9096539E-001	5.9092736E-001	9.220096927151544E-005	0	7.9875208E-006	14	0	5.4484076E-008	6.4091230E+006
2	1	0	1	0	3.625089908422524E+001	5.8788544E-001	5.8783293E-001	9.302874566258570E-005	0	7.9924894E-006	14	0	5.4685358E-008	6.3188310E+006
2	1	0	1	0	3.631249908266909E+001	5.8480543E-001	5.8474207E-001	8.720880846046206E-005	0	7.9972815E-006	14	0	5.0994657E-008	6.7050805E+006
2	1	0	1	0	3.637389908111800E+001	5.8173543E-001	5.8170140E-001	8.480848540013092E-005	0	8.0018044E-006	14	0	4.9333213E-008	6.8590000E+006
2	1	0	1	0	3.643549907956185E+001	5.7865542E-001	5.7858104E-001	8.349328201921529E-005	0	8.0062264E-006	14	0	4.8307630E-008	6.9296715E+006
2	1	0	1	0	3.649709907800570E+001	5.7557547E-001	5.7553166E-001	8.019801242973527E-005	0	8.0104892E-006	14	0	4.6156494E-008	7.1763830E+006
2	1	0	1	0	3.655869907644956E+001	5.7249552E-001	5.7243884E-001	7.666925242507370E-005	0	8.0145628E-006	14	0	4.3888459E-008	7.4663415E+006
2	1	0	1	0	3.662029907489341E+001	5.6941539E-001	5.6937236E-001	7.352309693606923E-005	0	8.0184864E-006	14	0	4.1862020E-008	7.7441290E+006
2	1	0	1	0	3.668169907334232E+001	5.6634545E-001	5.6633180E-001	7.106183727974432E-005	0	8.0221316E-006	14	0	4.0244579E-008	7.9695630E+006
2	1	0	1	0	3.674329907178617E+001	5.6326544E-001	5.6323719E-001	7.019268976313437E-005	0	8.0256659E-006	14	0	3.9535134E-008	8.0241575E+006
2	1	0	1	0	3.680489907023002E+001	5.6018543E-001	5.6016552E-001	6.498864951322892E-005	0	8.0290147E-006	14	0	3.6404401E-008	8.6194360E+006
2	1	0	1	0	3.686649906867387E+001	5.5710542E-001	5.5704355E-001	6.285756663073207E-005	0	8.0321679E-006	14	0	3.5014402E-008	8.8619970E+006
2	1	0	1	0	3.692789906712278E+001	5.5403543E-001	5.5397201E-001	6.133993343940855E-005	0	8.0350956E-006	14	0	3.3980605E-008	9.0311800E+006
2	1	0	1	0	3.698949906556663E+001	5.5095541E-001	5.5092871E-001	5.450884233014356E-005	0	8.0378759E-006	14	0	3.0030485E-008	1.0107144E+007
2	1	0	1	0	3.705109906401049E+001	5.4787534E-001	5.4777169E-001	5.350437452778239E-005	0	8.0404070E-006	14	0	2.9308183E-008	1.0237886E+007
2	1	0	1	0	3.711269906245434E+001	5.4479539E-001	5.4468447E-001	4.971151952698157E-005	0	8.0427890E-006	14	0	2.7077093E-008	1.0956906E+007
2	1	0	1	0	3.717429906089819E+001	5.4171538E-001	5.4162937E-001	4.574135722243042E-005	0	8.0449609E-006	14	0	2.4774863E-008	1.1841130E+007
2	1	0	1	0	3.723569905934710E+001	5.3864539E-001	5.3857362E-001	4.401531540218446E-005	0	8.0468653E-006	14	0	2.3705487E-008	1.2236051E+007
2	1	0	1	0	3.729729905779095E+001	5.3556538E-001	5.3545791E-001	3.645436368685689E-005	0	8.0485925E-006	14	0	1.9519778E-008	1.4688445E+007
2	1	0	1	0	3.735889905623480E+001	5.3248537E-001	5.3237003E-001	3.554183593223407E-005	0	8.0500931E-006	14	0	1.8921408E-008	1.4978687E+007
2	1	0	1	0	3.742049905467866E+001	5.2940536E-001	5.2936774E-001	3.279238404387948E-005	0	8.0513692E-006	14	0	1.7359230E-008	1.6143009E+007
2	1	0	1	0	3.748189905312756E+001	5.2633530E-001	5.2622807E-001	2.632773489810692E-005	0	8.0522987E-006	14	0	1.3854393E-008	1.9987594E+007
2	1	0	1	0	3.754349905157142E+001	5.2325535E-001	5.2320468E-001	2.335408596991072E-005	0	8.0529762E-006	14	0	1.2218967E-008	2.2403132E+007
2	1	0	1	0	3.760509905001527E+001	5.2017534E-001	5.2012622E-001	1.745839726136403E-005	0	8.0533919E-006	14	0	9.0805701E-009	2.9792324E+007
2	1	0	1	0	3.766669904845912E+001	5.1709533E-001	5.1701689E-001	1.324081637003307E-005	0	8.0534601E-006	14	0	6.8457258E-009	3.9047208E+007
2	1	0	1	0	3.772829904690298E+001	5.1401538E-001	5.1394409E-001	7.270463222351634E-006	0	8.0531845E-006	14	0	3.7366115E-009	7.0689320E+007
2	1	0	1	0	3.778969904535188E+001	5.1094532E-001	5.1085645E-001	-3.253222724886580E-007	0	8.0524987E-006	14	0	-1.6619298E-010	1.5703089E+009
2	1	0	1	0	3.785129904379573E+001	5.0786537E-001	5.0774711E-001	-8.135068305922702E-006	0	8.0514483E-006	14	0	-4.1305577E-009	6.2414608E+007
2	1	0	1	0	3.791289904223959E+001	5.0478530E-001	5.0469625E-001	-1.409075355254856E-005	0	8.0499676E-006	14	0	-7.1115505E-009	3.5817548E+007
2	1	0	1	0	3.797449904068344E+001	5.0170529E-001	5.0159305E-001	-2.118795325427108E-005	0	8.0479867E-006	14	0	-1.0627730E-008	2.3673502E+007
2	1	0	1	0	3.803589903913235E+001	4.9863532E-001	4.9851200E-001	-3.018424283212661E-005	0	8.0454647E-006	14	0	-1.5047208E-008	1.6515637E+007
2	1	0	1	0	3.809749903757620E+001	4.9555534E-001	4.9544367E-001	-3.966358240621245E-005	0	8.0424288E-006	14	0	-1.9651070E-008	1.2491148E+007
2	1	0	1	0	3.815909903602005E+001	4.9247530E-001	4.9237186E-001	-4.879920370401198E-005	0	8.0387854E-006	14	0	-2.4027354E-008	1.0089752E+007
2	1	0	1	0	3.822069903446391E+001	4.8939526E-001	4.8932528E-001	-6.059603929029422E-005	0	8.0344726E-006	14	0	-2.9651174E-008	8.0752025E+006
2	1	0	1	0	3.828229903290776E+001	4.8631531E-001	4.8622534E-001	-7.449846880007481E-005	0	8.0293721E-006	14	0	-3.6223042E-008	6.5266485E+006
2	1	0	1	0	3.834369903135666E+001	4.8324522E-001	4.8314714E-001	-8.803169938516125E-005	0	8.0234058E-006	14	0	-4.2532264E-008	5.4883315E+006
2	1	0	1	0	3.840529902980052E+001	4.8016527E-001	4.8007181E-001	-1.021254284985880E-004	0	8.0165673E-006	14	0	-4.9027541E-008	4.7008060E+006
2	1	0	1	0	3.846689902824437E+001	4.7708529E-001	4.7700304E-001	-1.205887453535935E-004	0	8.0086738E-006	14	0	-5.7521198E-008	3.9556183E+006
2	1	0	1	0	3.852849902668822E+001	4.7400528E-001	4.7389486E-001	-1.382289338471238E-004	0	7.9996344E-006	14	0	-6.5505979E-008	3.4283333E+006
2	1	0	1	0	3.858989902513713E+001	4.7093529E-001	4.7078702E-001	-1.594542760418784E-004	0	7.9893480E-006	14	0	-7.5069003E-008	2.9524893E+006
2	1	0	1	0	3.865149902358098E+001	4.6785522E-001	4.6775091E-001	-1.829861706584344E-004	0	7.9776946E-006	14	0	-8.5591950E-008	2.5562090E+006
2	0	0	1	0	3.871309902202484E+001	4.6477526E-001	4.6463412E-001	-2.064250072571104E-004	0	7.9644633E-006	14	0	-9.5912100E-008	2.2508615E+006
2	0	0	1	0	3.877469902046869E+001	4.6169522E-001	4.6157271E-001	-2.361799460294084E-004	0	7.9495449E-006	14	0	-1.0901422E-007	1.9543264E+006
2	0	0	1	0	3.883629901891254E+001	4.5861521E-001	4.5847905E-001	-2.675500546222166E-004	0	7.9326956E-006	14	0	-1.2266609E-007	1.7136198E+006
2	0	0	1	0	3.889769901736145E+001	4.5554522E-001	4.5539153E-001	-3.035272602473754E-004	0	7.9137526E-006	14	0	-1.3822374E-007	1.5003315E+006
2	0	0	1	0	3.895929901580530E+001	4.5246524E-001	4.5235041E-001	-3.424531589573107E-004	0	7.8924731E-006	14	0	-1.5490883E-007	1.3209118E+006
2	0	0	1	0	3.902089901424915E+001	4.4938523E-001	4.4928554E-001	-3.852181557013877E-004	0	7.8685953E-006	14	0	-1.7307295E-007	1.1663145E+006
2	0	0	1	0	3.908249901269301E+001	4.4630519E-001	4.4620064E-001	-4.347435355848430E-004	0	7.8417788E-006	14	0	-1.9398284E-007	1.0263537E+006
2	0	0	1	0	3.914389901114191E+001	4.4323522E-001	4.4312182E-001	-4.894323698316680E-004	0	7.8117619E-006	14	0	-2.1687816E-007	9.0537906E+005
2	0	0	1	0	3.920549900958576E+001	4.4015518E-001	4.4006094E-001	-5.496567462466089E-004	0	7.7780851E-006	14	0	-2.4188247E-007	8.0061044E+005
2	0	0	1	0	3.926709900802962E+001	4.3707520E-001	4.3690419E-001	-6.178639985995882E-004	0	7.7404038E-006	14	0	-2.6994738E-007	7.0712031E+005
2	0	0	1	0	3.932869900647347E+001	4.3399522E-001	4.3383172E-001	-6.948680764937275E-004	0	7.6981723E-006	14	0	-3.0145583E-007	6.2433681E+005
2	0	0	1	0	3.939029900491732E+001	4.3091515E-001	4.3077296E-001	-7.780375520782101E-004	0	7.6509850E-006	14	0	-3.3515755E-007	5.5366600E+005
2	0	0	1	0	3.945169900336623E+001	4.2784515E-001	4.2763853E-001	-8.711737580504838E-004	0	7.5984253E-006	14	0	-3.7254748E-007	4.9087628E+005
2	0	0	1	0	3.951329900181008E+001	4.2476514E-001	4.2456520E-001	-9.702828960748101E-004	0	7.5396129E-006	14	0	-4.1194835E-007	4.3756847E+005
2	0	0	1	0	3.957489900025394E+001	4.2168519E-001	4.2150053E-001	-1.087871349915507E-003	0	7.4740278E-006	14	0	-4.5853835E-007	3.8745441E+005
2	0	0	1	0	3.963649899869779E+001	4.1860515E-001	4.1841894E-001	-1.214581960578307E-003	0	7.4008281E-006	14	0	-5.0820410E-007	3.4449625E+005
2	0	0	1	0	3.969789899714669E+001	4.1553515E-001	4.1533962E-001	-1.353809037133786E-003	0	7.3194510E-006	14	0	-5.6229055E-007	3.0679334E+005
2	0	0	1	0	3.975949899559055E+001	4.1245517E-001	4.1224101E-001	-1.507672304238067E-003	0	7.2286944E-006	14	0	-6.2152435E-007	2.7342878E+005
2	0	0	1	0	3.982109899403440E+001	4.0937510E-001	4.0926218E-001	-1.682114965438707E-003	0	7.1276372E-006	14	0	-6.8842604E-007	2.4330214E+005
2	0	0	1	0	3.988269899247825E+001	4.0629515E-001	4.0610760E-001	-1.875667450612031E-003	0	7.0150636E-006	14	0	-7.6172279E-007	2.1651366E+005
2	0	0	1	0	3.994429899092211E+001	4.0321514E-001	4.0302652E-001	-2.088349129998758E-003	0	6.8898030E-006	14	0	-8.4166010E-007	1.9298809E+005
2	0	0	1	0	4.000569898937101E+001	4.0014511E-001	3.9993957E-001	-2.322970354359237E-003	0	6.7509536E-006	14	0	-9.2904776E-007	1.7216731E+005
2	0	0	1	0	4.006729898781487E+001	3.9706510E-001	3.9685732E-001	-2.587867551299361E-003	0	6.5961017E-006	14	0	-1.0270142E-006	1.5335303E+005
2	0	0	1	0	4.012889898625872E+001	3.9398509E-001	3.9376187E-001	-2.881886549940010E-003	0	6.4238534E-006	14	0	-1.1347770E-006	1.3663338E+005
2	0	0	1	0	4.019049898470257E+001	3.9090514E-001	3.9066437E-001	-3.199888118698729E-003	0	6.2324903E-006	14	0	-1.2500823E-006	1.2208688E+005
2	0	0	1	0	4.025189898315148E+001	3.8783506E-001	3.8757882E-001	-3.556733859399815E-003	0	6.0208358E-006	14	0	-1.3785146E-006	1.0897043E+005
2	0	0	1	0	4.031349898159533E+001	3.8475507E-001	3.8446543E-001	-3.942903031519049E-003	0	5.7853858E-006	14	0	-1.5159098E-006	9.7508211E+004
2	0	0	1	0	4.037509898003918E+001	3.8167509E-001	3.8136309E-001	-4.370176218280966E-003	0	5.5245891E-006	14	0	-1.6666239E-006	8.7264922E+004
2	0	0	1	0	4.043669897848304E+001	3.7859508E-001	3.7836042E-001	-4.846508975942646E-003	0	5.2357104E-006	14	0	-1.8337272E-006	7.8068648E+004
2	0	0	1	0	4.049829897692689E+001	3.7551507E-001	3.7527430E-001	-5.358514567487579E-003	0	4.9159571E-006	14	0	-2.0109128E-006	7.0033273E+004
2	0	0	1	0	4.055969897537580E+001	3.7244508E-001	3.7223789E-001	-5.919197911694207E-003	0	4.5640454E-006	14	0	-2.2033498E-006	6.2886543E+004
2	0	0	1	0	4.062129897381965E+001	3.6936510E-001	3.6911336E-001	-6.547122794180307E-003	0	4.1740313E-006	14	0	-2.4166304E-006	5.6377949E+004
2	0	0	1	0	4.068289897226350E+001	3.6628509E-001	3.6604583E-001	-7.228051812871682E-003	0	3.7432251E-006	14	0	-2.6457983E-006	5.0642391E+004
2	0	0	1	0	4.074449897070735E+001	3.6320505E-001	3.6295217E-001	-7.981890075950640E-003	0	3.2679889E-006	14	0	-2.8970444E-006	4.5471957E+004
2	0	0	1	0	4.080589896915626E+001	3.6013505E-001	3.5989028E-001	-8.791091867130932E-003	0	2.7459846E-006	14	0	-3.1638285E-006	4.0938063E+004
2	0	0	1	0	4.086749896760011E+001	3.5705507E-001	3.5676369E-001	-9.683120847966353E-003	0	2.1693484E-006	14	0	-3.4545860E-006	3.6843875E+004
2	0	0	1	0	4.094449896565493E+001	3.5320491E-001	3.5296416E-001	-1.092207532078364E-002	0	1.3564362E-006	14	0	-3.8551011E-006	3.2316584E+004
2	0	0	1	0	4.102149896370975E+001	3.4935504E-001	3.4906650E-001	-1.224470159847187E-002	0	4.6211917E-007	13	0	-4.2742149E-006	2.8507555E+004
2	0	0	1	0	4.108289896215865E+001	3.4628505E-001	3.4598637E-001	-1.341507071490083E-002	0	-3.3548685E-007	13	0	-4.6414316E-006	2.5790871E+004
2	0	0	1	0	4.114449896060250E+001	3.4320506E-001	3.4292606E-001	-1.469843550240785E-002	0	-1.2116212E-006	13	0	-5.0404765E-006	2.3330785E+004
2	0	0	1	0	4.120609895904636E+001	3.4012499E-001	3.3984199E-001	-1.607460298238078E-002	0	-2.1699545E-006	13	0	-5.4628249E-006	2.1141549E+004
2	0	0	1	0	4.126769895749021E+001	3.3704501E-001	3.3677110E-001	-1.755470423065014E-002	0	-3.2167991E-006	13	0	-5.9119170E-006	1.9184094E+004
2	0	0	1	0	4.132929895593406E+001	3.3396503E-001	3.3373478E-001	-1.912011565850180E-002	0	-4.3578270E-006	13	0	-6.3810476E-006	1.7454643E+004
2	0	0	1	0	4.139069895438297E+001	3.3089498E-001	3.3063674E-001	-2.079440987045250E-002	0	-5.5950786E-006	13	0	-6.8753957E-006	1.5900271E+004
2	0	0	1	0	4.145229895282682E+001	3.2781497E-001	3.2753921E-001	-2.261017542954413E-002	0	-6.9445896E-006	13	0	-7.4057189E-006	1.4486363E+004
2	0	0	1	0	4.151389895127068E+001	3.2473499E-001	3.2448298E-001	-2.452159502523261E-002	0	-8.4092244E-006	13	0	-7.9568399E-006	1.3232540E+004
2	0	0	1	0	4.157549894971453E+001	3.2165498E-001	3.2139796E-001	-2.653527730832211E-002	0	-9.9954768E-006	13	0	-8.5283837E-006	1.2112101E+004
2	0	0	1	0	4.163689894816343E+001	3.1858498E-001	3.1831387E-001	-2.869222402695187E-002	0	-1.1705129E-005	13	0	-9.1331331E-006	1.1094081E+004
2	0	0	1	0	4.169849894660729E+001	3.1550497E-001	3.1519404E-001	-3.093950483318852E-002	0	-1.3556383E-005	13	0	-9.7519478E-006	1.0187430E+004
2	0	0	1	0	4.176009894505114E+001	3.1242499E-001	3.1215978E-001	-3.329299736942276E-002	0	-1.5550209E-005	13	0	-1.0392735E-005	9.3761396E+003
2	0	0	1	0	4.182169894349499E+001	3.0934495E-001	3.0908114E-001	-3.577006876204736E-002	0	-1.7693061E-005	13	0	-1.1055854E-005	8.6407754E+003
2	0	0	1	0	4.188329894193885E+001	3.0626500E-001	3.0597728E-001	-3.829699582664436E-002	0	-1.9990410E-005	13	0	-1.1718011E-005	7.9895898E+003
2	0	0	1	0	4.194469894038775E+001	3.0319494E-001	3.0288130E-001	-4.093164778167213E-002	0	-2.2439450E-005	13	0	-1.2397431E-005	7.3996851E+003
2	0	0	1	0	4.200629893883161E+001	3.0011493E-001	2.9982325E-001	-4.364969777113048E-002	0	-2.5061656E-005	13	0	-1.3087194E-005	6.8688506E+003
2	0	0	1	0	4.206789893727546E+001	2.9703492E-001	2.9674003E-001	-4.641957018008525E-002	0	-2.7853572E-005	13	0	-1.3774545E-005	6.3925630E+003
2	0	0	1	0	4.212949893571931E+001	2.9395494E-001	2.9367119E-001	-4.923081955145148E-002	0	-3.0817308E-005	13	0	-1.4457673E-005	5.9651899E+003
2	0	0	1	0	4.219089893416822E+001	2.9088497E-001	2.9063269E-001	-5.211658854693474E-002	0	-3.3946912E-005	13	0	-1.5146785E-005	5.5765869E+003
2	0	0	1	0	4.225249893261207E+001	2.8780490E-001	2.8751439E-001	-5.503604369213533E-002	0	-3.7266200E-005	13	0	-1.5823654E-005	5.2241108E+003
2	0	0	1	0	4.231409893105592E+001	2.8472495E-001	2.8445104E-001	-5.798518005734477E-002	0	-4.0766095E-005	13	0	-1.6493945E-005	4.9055815E+003
2	0	0	1	0	4.237569892949978E+001	2.8164491E-001	2.8136605E-001	-6.091360680671515E-002	0	-4.4447312E-005	13	0	-1.7139020E-005	4.6191001E+003
2	0	0	1	0	4.243729892794363E+001	2.7856490E-001	2.7825984E-001	-6.386925284172788E-002	0	-4.8310332E-005	13	0	-1.7772249E-005	4.3567104E+003
2	0	0	1	0	4.249869892639254E+001	2.7549490E-001	2.7521378E-001	-6.677725749606311E-002	0	-5.2340558E-005	13	0	-1.8378021E-005	4.1213701E+003
2	0	0	1	0	4.256029892483639E+001	2.7241489E-001	2.7212155E-001	-6.961972942717198E-002	0	-5.6561479E-005	13	0	-1.8945029E-005	3.9086843E+003
2	0	0	1	0	4.262189892328024E+001	2.6933491E-001	2.6897180E-001	-7.247723554110047E-002	0	-6.0957962E-005	13	0	-1.9494333E-005	3.7111211E+003
2	0	0	1	0	4.268349892172409E+001	2.6625487E-001	2.6596951E-001	-7.518921933335865E-002	0	-6.5525513E-005	13	0	-1.9998040E-005	3.5373357E+003
2	0	0	1	0	4.274489892017300E+001	2.6318491E-001	2.6285040E-001	-7.781549141327160E-002	0	-7.0242691E-005	13	0	-2.0453834E-005	3.3778672E+003
2	0	0	1	0	4.280649891861685E+001	2.6010486E-001	2.5977829E-001	-8.044280533370474E-002	0	-7.5136653E-005	13	0	-2.0897294E-005	3.2293540E+003
2	0	0	1	0	4.286809891706071E+001	2.5702485E-001	2.5675574E-001	-8.288167454065376E-002	0	-8.0186423E-005	13	0	-2.1280346E-005	3.0978589E+003
2	0	0	1	0	4.292969891550456E+001	2.5394487E-001	2.5362235E-001	-8.521074616363566E-002	0	-8.5382708E-005	13	0	-2.1611349E-005	2.9764128E+003
2	0	0	1	0	4.299129891394841E+001	2.5086486E-001	2.5054047E-001	-8.749906590134093E-002	0	-9.0721151E-005	13	0	-2.1922056E-005	2.8633501E+003
2	0	0	1	0	4.305269891239732E+001	2.4779488E-001	2.4753049E-001	-8.963987165802628E-002	0	-9.6178388E-005	13	0	-2.2188602E-005	2.7613882E+003
2	0	0	1	0	4.311429891084117E+001	2.4471486E-001	2.4442196E-001	-9.169060180819599E-002	0	-1.0178216E-004	13	0	-2.2411197E-005	2.6657253E+003
2	0	0	1	0	4.317589890928502E+001	2.4163486E-001	2.4135430E-001	-9.360124969154360E-002	0	-1.0750762E-004	13	0	-2.2591064E-005	2.5785371E+003
2	0	0	1	0	4.323749890772888E+001	2.3855484E-001	2.3826012E-001	-9.541370358945023E-002	0	-1.1334762E-004	13	0	-2.2733280E-005	2.4971270E+003
2	0	0	1	0	4.329889890617778E+001	2.3548482E-001	2.3521385E-001	-9.718148727407017E-002	0	-1.1927809E-004	13	0	-2.2858432E-005	2.4203564E+003
2	0	0	1	0	4.336049890462164E+001	2.3240486E-001	2.3205891E-001	-9.874255604938220E-002	0	-1.2533041E-004	13	0	-2.2914090E-005	2.3501409E+003
2	0	0	1	0	4.342209890306549E+001	2.2932482E-001	2.2897823E-001	-1.002341089721044E-001	0	-1.3147635E-004	13	0	-2.2951430E-005	2.2844343E+003
2	0	0	1	0	4.348369890150934E+001	2.2624484E-001	2.2587419E-001	-1.016270512491635E-001	0	-1.3771051E-004	13	0	-2.2954928E-005	2.2225793E+003
2	0	0	1	0	4.354529889995320E+001	2.2316480E-001	2.2282970E-001	-1.029064557649413E-001	0	-1.4402669E-004	13	0	-2.2930615E-005	2.1653618E+003
2	0	0	1	0	4.360669889840210E+001	2.2009481E-001	2.1975152E-001	-1.041365474699782E-001	0	-1.5039914E-004	13	0	-2.2884165E-005	2.1102249E+003
2	0	0	1	0	4.366829889684595E+001	2.1701479E-001	2.1671641E-001	-1.052141161805547E-001	0	-1.5686292E-004	13	0	-2.2801625E-005	2.0597656E+003
2	0	0	1	0	4.372989889528981E+001	2.1393478E-001	2.1362627E-001	-1.062622774025250E-001	0	-1.6339186E-004	13	0	-2.2700413E-005	2.0103678E+003
2	0	0	1	0	4.379149889373366E+001	2.1085481E-001	2.1051767E-001	-1.072713692022369E-001	0	-1.6998388E-004	13	0	-2.2582519E-005	1.9624778E+003
2	0	0	1	0	4.386529889186932E+001	2.0716555E-001	2.0689394E-001	-1.082560246669089E-001	0	-1.7798075E-004	13	0	-2.2397515E-005	1.9111541E+003
2	0	0	1	0	4.393909889000497E+001	2.0347477E-001	2.0317321E-001	-1.091902899186823E-001	0	-1.8603701E-004	12	0	-2.2184540E-005	1.8607260E+003
2	0	0	1	0	4.400069888844882E+001	2.0039478E-001	2.0004055E-001	-1.100254801283700E-001	0	-1.9280336E-004	12	0	-2.2009557E-005	1.8181293E+003
2	0	0	1	0	4.406229888689268E+001	1.9731478E-001	1.9698121E-001	-1.107408898062678E-001	0	-1.9961705E-004	12	0	-2.1813874E-005	1.7787577E+003
2	0	0	1	0	4.412389888533653E+001	1.9423588E-001	1.9383401E-001	-1.114293458465199E-001	0	-2.0647416E-004	12	0	-2.1598797E-005	1.7395239E+003
2	0	0	1	0	4.418539888378291E+001	1.9116031E-001	1.9081910E-001	-1.121102201750276E-001	0	-2.1336181E-004	12	0	-2.1392771E-005	1.7020669E+003
2	0	0	1	0	4.424689888222929E+001	1.8808585E-001	1.8772182E-001	-1.127070402153362E-001	0	-2.2028870E-004	12	0	-2.1157570E-005	1.6655731E+003
2	0	0	1	0	4.430849888067314E+001	1.8500586E-001	1.8463501E-001	-1.132894140665170E-001	0	-2.2726259E-004	12	0	-2.0917192E-005	1.6297640E+003
2	0	0	1	0	4.437009887911699E+001	1.8192585E-001	1.8155204E-001	-1.138474452097811E-001	0	-2.3427121E-004	12	0	-2.0669235E-005	1.5946958E+003
2	0	0	1	0	4.443169887756085E+001	1.7884587E-001	1.7848754E-001	-1.143782873646459E-001	0	-2.4131326E-004	12	0	-2.0415098E-005	1.5605020E+003
2	0	0	1	0	4.449309887600975E+001	1.7577584E-001	1.7541134E-001	-1.148533494744552E-001	0	-2.4836298E-004	12	0	-2.0146581E-005	1.5272637E+003
2	0	0	1	0	4.455469887445361E+001	1.7269585E-001	1.7234769E-001	-1.153318299902790E-001	0	-2.5546490E-004	12	0	-1.9877176E-005	1.4943636E+003
2	0	0	1	0	4.461629887289746E+001	1.6961582E-001	1.6920450E-001	-1.157829889617614E-001	0	-2.6259531E-004	12	0	-1.9591003E-005	1.4613934E+003
2	0	0	1	0	4.467789887134131E+001	1.6653581E-001	1.6619204E-001	-1.162313013054328E-001	0	-2.6975319E-004	12	0	-1.9316718E-005	1.4298390E+003
2	0	0	1	0	4.473949886978517E+001	1.6345583E-001	1.6315380E-001	-1.166279372254675E-001	0	-2.7693695E-004	12	0	-1.9028292E-005	1.3989255E+003
2	0	0	1	0	4.480089886823407E+001	1.6038582E-001	1.6002265E-001	-1.170116420542273E-001	0	-2.8412140E-004	12	0	-1.8724513E-005	1.3675789E+003
2	0	0	1	0	4.486249886667792E+001	1.5730582E-001	1.5700887E-001	-1.173997794775250E-001	0	-2.9135277E-004	12	0	-1.8432807E-005	1.3373865E+003
2	0	0	1	0	4.492409886512178E+001	1.5422580E-001	1.5385088E-001	-1.177597081203841E-001	0	-2.9860687E-004	12	0	-1.8117435E-005	1.3064816E+003
2	0	0	1	0	4.498569886356563E+001	1.5114579E-001	1.5073816E-001	-1.181002079181628E-001	0	-3.0588236E-004	12	0	-1.7802209E-005	1.2763582E+003
2	0	0	1	0	4.504709886201454E+001	1.4807579E-001	1.4768885E-001	-1.184198923018172E-001	0	-3.1315431E-004	12	0	-1.7489298E-005	1.2471625E+003
2	0	0	1	0	4.510869886045839E+001	1.4499578E-001	1.4463916E-001	-1.187440906481606E-001	0	-3.2046941E-004	12	0	-1.7175045E-005	1.2180746E+003
2	0	0	1	0	4.517029885890224E+001	1.4191578E-001	1.4156483E-001	-1.190535450545702E-001	0	-3.2780407E-004	12	0	-1.6853795E-005	1.1890854E+003
2	0	0	1	0	4.523189885734610E+001	1.3883577E-001	1.3843934E-001	-1.193253899519717E-001	0	-3.3515660E-004	12	0	-1.6519329E-005	1.1601835E+003
2	0	0	1	0	4.529349885578995E+001	1.3575578E-001	1.3543546E-001	-1.196058306738655E-001	0	-3.4252595E-004	12	0	-1.6198870E-005	1.1323483E+003
2	0	0	1	0	4.535489885423885E+001	1.3268577E-001	1.3238800E-001	-1.198841360461200E-001	0	-3.4988858E-004	12	0	-1.5871221E-005	1.1042996E+003
2	0	0	1	0	4.541649885268271E+001	1.2960576E-001	1.2926497E-001	-1.201523358429302E-001	0	-3.5729186E-004	12	0	-1.5531488E-005	1.0758423E+003
2	0	0	1	0	4.547809885112656E+001	1.2652574E-001	1.2618101E-001	-1.203970539653365E-001	0	-3.6471072E-004	12	0	-1.5191821E-005	1.0480406E+003
2	0	0	1	0	4.553969884957041E+001	1.2344575E-001	1.2307788E-001	-1.206563557682598E-001	0	-3.7214480E-004	12	0	-1.4850129E-005	1.0200696E+003
2	0	0	1	0	4.560109884801932E+001	1.2037574E-001	1.1998973E-001	-1.208785415907241E-001	0	-3.7956936E-004	12	0	-1.4504184E-005	9.9264709E+002
2	0	0	1	0	4.566269884646317E+001	1.1729574E-001	1.1688647E-001	-1.211152939805051E-001	0	-3.8703220E-004	12	0	-1.4156740E-005	9.6508435E+002
2	0	0	1	0	4.572429884490703E+001	1.1421573E-001	1.1384922E-001	-1.213243251202287E-001	0	-3.9450874E-004	12	0	-1.3812679E-005	9.3838739E+002
2	0	0	1	0	4.578589884335088E+001	1.1113571E-001	1.1074027E-001	-1.215232257414571E-001	0	-4.0199808E-004	12	0	-1.3457516E-005	9.1126837E+002
2	0	0	1	0	4.584749884179473E+001	1.0805571E-001	1.0768945E-001	-1.217248333199217E-001	0	-4.0949983E-004	12	0	-1.3108480E-005	8.8469580E+002
2	0	0	1	0	4.590889884024364E+001	1.0498571E-001	1.0461371E-001	-1.219142768706871E-001	0	-4.1698935E-004	12	0	-1.2753904E-005	8.5809235E+002
2	0	0	1	0	4.597049883868749E+001	1.0190571E-001	1.0149466E-001	-1.221249420432449E-001	0	-4.2451487E-004	12	0	-1.2395029E-005	8.3107227E+002
2	0	0	1	0	4.603209883713134E+001	9.8825708E-002	9.8455489E-002	-1.222804671136131E-001	0	-4.3205140E-004	12	0	-1.2039183E-005	8.0516119E+002
2	0	0	1	0	4.609369883557520E+001	9.5745698E-002	9.5420398E-002	-1.224494971763210E-001	0	-4.3959840E-004	12	0	-1.1684179E-005	7.7926331E+002
2	0	0	1	0	4.615509883402410E+001	9.2675693E-002	9.2354901E-002	-1.226286399462713E-001	0	-4.4713155E-004	12	0	-1.1325356E-005	7.5312671E+002
2	0	0	1	0	4.621669883246796E+001	8.9595690E-002	8.9242622E-002	-1.227927172790428E-001	0	-4.5469945E-004	12	0	-1.0958344E-005	7.2677454E+002
2	0	0	1	0	4.627829883091181E+001	8.6515695E-002	8.6146921E-002	-1.229442271312390E-001	0	-4.6227695E-004	12	0	-1.0591267E-005	7.0069922E+002
2	0	0	1	0	4.633989882935566E+001	8.3435677E-002	8.3069563E-002	-1.231077914871497E-001	0	-4.6986403E-004	12	0	-1.0226510E-005	6.7477094E+002
2	0	0	1	0	4.640149882779951E+001	8.0355674E-002	7.9997383E-002	-1.232454707487733E-001	0	-4.7746042E-004	12	0	-9.8593155E-006	6.4908984E+002
2	0	0	1	0	4.646289882624842E+001	7.7285662E-002	7.6842979E-002	-1.234098619640382E-001	0	-4.8504144E-004	12	0	-9.4831812E-006	6.2266479E+002
2	0	0	1	0	4.652449882469227E+001	7.4205659E-002	7.3768802E-002	-1.235282833480147E-001	0	-4.9265567E-004	12	0	-9.1125339E-006	5.9718146E+002
2	0	0	1	0	4.658609882313613E+001	7.1125656E-002	7.0702776E-002	-1.236741173266340E-001	0	-5.0027785E-004	12	0	-8.7441031E-006	5.7168610E+002
2	0	0	1	0	4.664769882157998E+001	6.8045653E-002	6.7638412E-002	-1.237985396361942E-001	0	-5.0790777E-004	12	0	-8.3735367E-006	5.4635870E+002
2	0	0	1	0	4.670909882002888E+001	6.4975649E-002	6.4578250E-002	-1.239262205555788E-001	0	-5.1552081E-004	12	0	-8.0029386E-006	5.2110242E+002
2	0	0	1	0	4.677069881847274E+001	6.1895642E-002	6.1474279E-002	-1.240449013383328E-001	0	-5.2316609E-004	12	0	-7.6255710E-006	4.9558087E+002
2	0	0	1	0	4.683229881691659E+001	5.8815636E-002	5.8435984E-002	-1.241514867081024E-001	0	-5.3081854E-004	12	0	-7.2549142E-006	4.7068292E+002
2	0	0	1	0	4.689389881536044E+001	5.5735629E-002	5.5367175E-002	-1.242529210146697E-001	0	-5.3847767E-004	12	0	-6.8795334E-006	4.4560059E+002
2	0	0	1	0	4.695549881380430E+001	5.2655622E-002	5.2259166E-002	-1.243670567159438E-001	0	-5.4614356E-004	12	0	-6.4993187E-006	4.2020102E+002
2	0	0	1	0	4.701689881225320E+001	4.9585618E-002	4.9176786E-002	-1.244835482440048E-001	0	-5.5379112E-004	12	0	-6.1217006E-006	3.9504648E+002
2	0	0	1	0	4.707849881069706E+001	4.6505611E-002	4.6111010E-002	-1.245705982953249E-001	0	-5.6146976E-004	12	0	-5.7440761E-006	3.7015967E+002
2	0	0	1	0	4.714009880914091E+001	4.3425605E-002	4.3042678E-002	-1.246909655283804E-001	0	-5.6915492E-004	12	0	-5.3670333E-006	3.4519485E+002
2	0	0	1	0	4.720169880758476E+001	4.0345598E-002	3.9951589E-002	-1.247595106638827E-001	0	-5.7684584E-004	12	0	-4.9843406E-006	3.2022879E+002
2	0	0	1	0	4.726309880603367E+001	3.7275594E-002	3.6819402E-002	-1.248652480780892E-001	0	-5.8451702E-004	12	0	-4.5974639E-006	2.9487311E+002
2	0	0	1	0	4.732469880447752E+001	3.4195591E-002	3.3773843E-002	-1.249512728592976E-001	0	-5.9221865E-004	12	0	-4.2200845E-006	2.7029611E+002
2	0	0	1	0	4.738629880292137E+001	3.1115586E-002	3.0689741E-002	-1.250212056698070E-001	0	-5.9992546E-004	12	0	-3.8368685E-006	2.4547629E+002
2	0	0	1	0	4.744789880136523E+001	2.8035579E-002	2.7585007E-002	-1.251046682126473E-001	0	-6.0763705E-004	12	0	-3.4510131E-006	2.2049542E+002
2	0	0	1	0	4.750949879980908E+001	2.4955573E-002	2.4542376E-002	-1.251832514030269E-001	0	-6.1535335E-004	12	0	-3.0722945E-006	1.9605159E+002
2	0	0	1	0	4.757089879825799E+001	2.1885568E-002	2.1429617E-002	-1.252488309239086E-001	0	-6.2304887E-004	12	0	-2.6840344E-006	1.7109634E+002
2	0	0	1	0	4.763249879670184E+001	1.8805563E-002	1.8407339E-002	-1.253085569282133E-001	0	-6.3077372E-004	12	0	-2.3065970E-006	1.4689610E+002
2	0	0	1	0	4.769409879514569E+001	1.5725559E-002	1.5362744E-002	-1.253834961351401E-001	0	-6.3850282E-004	12	0	-1.9262345E-006	1.2252605E+002
2	0	0	1	0	4.775569879358954E+001	1.2645553E-002	1.2206862E-002	-1.254469330782657E-001	0	-6.4623577E-004	12	0	-1.5313134E-006	9.7306976E+001
2	0	0	1	0	4.781709879203845E+001	9.5755467E-003	9.1945045E-003	-1.255190661822257E-001	0	-6.5394741E-004	12	0	-1.1540856E-006	7.3251854E+001
2	0	0	1	0	4.787869879048230E+001	6.4955414E-003	6.1031692E-003	-1.255571214733071E-001	0	-6.6168787E-004	12	0	-7.6629635E-007	4.8608707E+001
2	0	0	1	0	4.794029878892616E+001	3.4155366E-003	2.9919608E-003	-1.256425963607614E-001	0	-6.6943199E-004	12	0	-3.7591772E-007	2.3813269E+001
2	0	0	1	0	4.800189878737001E+001	3.3553093E-004	-1.5716825E-004	-1.256986417800917E-001	0	-6.7718053E-004	12	0	1.9755836E-008	1.2503576E+000
2	0	0	1	0	4.806349878581386E+001	-2.7444754E-003	-3.4510938E-003	-1.257663857496159E-001	0	-6.8493345E-004	12	0	4.3403159E-007	2.7440510E+001
2	0	0	1	0	4.812489878426277E+001	-5.8144820E-003	-6.5233833E-003	-1.258111731536873E-001	0	-6.9266395E-004	12	0	8.2071449E-007	5.1850590E+001
2	0	0	1	0	4.818649878270662E+001	-8.8944901E-003	-9.5697390E-003	-1.258624806076364E-001	0	-7.0042274E-004	12	0	1.2044711E-006	7.6033295E+001
2	0	0	1	0	4.824809878115047E+001	-1.1974497E-002	-1.2632350E-002	-1.259181048558730E-001	0	-7.0818479E-004	12	0	1.5906415E-006	1.0032195E+002
2	0	0	1	0	4.830969877959433E+001	-1.5054504E-002	-1.5741596E-002	-1.259718984349930E-001	0	-7.1595010E-004	12	0	1.9829988E-006	1.2496117E+002
2	0	0	1	0	4.837109877804323E+001	-1.8124511E-002	-1.8853804E-002	-1.260361953418514E-001	0	-7.2369352E-004	12	0	2.3762618E-006	1.4959039E+002
2	0	0	1	0	4.843269877648709E+001	-2.1204518E-002	-2.1862205E-002	-1.260786619372010E-001	0	-7.3146529E-004	12	0	2.7563576E-006	1.7340131E+002
2	0	0	1	0	4.849429877493094E+001	-2.4284527E-002	-2.4945034E-002	-1.261347507601016E-001	0	-7.3924044E-004	12	0	3.1464356E-006	1.9776495E+002
2	0	0	1	0	4.855589877337479E+001	-2.7364532E-002	-2.7999066E-002	-1.261884015456971E-001	0	-7.4701890E-004	12	0	3.5331573E-006	2.2188304E+002
2	0	0	1	0	4.861749877181865E+001	-3.0444536E-002	-3.1132871E-002	-1.262388845405822E-001	0	-7.5480010E-004	12	0	3.9301790E-006	2.4661871E+002
2	0	0	1	0	4.867889877026755E+001	-3.3514544E-002	-3.4158699E-002	-1.262843446165179E-001	0	-7.6255918E-004	12	0	4.3137088E-006	2.7049036E+002
2	0	0	1	0	4.874049876871140E+001	-3.6594551E-002	-3.7269078E-002	-1.263355318298863E-001	0	-7.7034661E-004	12	0	4.7084086E-006	2.9500076E+002
2	0	0	1	0	4.880209876715526E+001	-3.9674558E-002	-4.0332828E-002	-1.263748401962474E-001	0	-7.7813683E-004	12	0	5.0970548E-006	3.1915234E+002
2	0	0	1	0	4.886369876559911E+001	-4.2754564E-002	-4.3420754E-002	-1.264404925213380E-001	0	-7.8593026E-004	12	0	5.4901416E-006	3.4340860E+002
2	0	0	1	0	4.892509876404802E+001	-4.5824576E-002	-4.6529897E-002	-1.264773002105852E-001	0	-7.9370121E-004	12	0	5.8849755E-006	3.6789130E+002
2	0	0	1	0	4.898669876249187E+001	-4.8904579E-002	-4.9583901E-002	-1.265311262559117E-001	0	-8.0150052E-004	12	0	6.2739068E-006	3.9187119E+002
2	0	0	1	0	4.904829876093572E+001	-5.1984586E-002	-5.2691869E-002	-1.265727132695709E-001	0	-8.0930255E-004	12	0	6.6693528E-006	4.1629724E+002
2	0	0	1	0	4.910989875937958E+001	-5.5064589E-002	-5.5782210E-002	-1.266182062985081E-001	0	-8.1710733E-004	12	0	7.0630435E-006	4.4055441E+002
2	0	0	1	0	4.917149875782343E+001	-5.8144603E-002	-5.8822159E-002	-1.266618085692907E-001	0	-8.2491495E-004	12	0	7.4505210E-006	4.6440329E+002
2	0	0	1	0	4.923289875627233E+001	-6.1214611E-002	-6.1884489E-002	-1.267100104939327E-001	0	-8.3270000E-004	12	0	7.8413841E-006	4.8839462E+002
2	0	0	1	0	4.929449875471619E+001	-6.4294614E-002	-6.4911321E-002	-1.267541032211816E-001	0	-8.4051321E-004	12	0	8.2277766E-006	5.1210431E+002
2	0	0	1	0	4.935609875316004E+001	-6.7374624E-002	-6.8039440E-002	-1.268012683161367E-001	0	-8.4832922E-004	12	0	8.6274877E-006	5.3658325E+002
2	0	0	1	0	4.941769875160389E+001	-7.0454627E-002	-7.1160227E-002	-1.268657293848567E-001	0	-8.5614825E-004	12	0	9.0277945E-006	5.6090979E+002
2	0	0	1	0	4.947909875005280E+001	-7.3524639E-002	-7.4175857E-002	-1.268846802067318E-001	0	-8.6394459E-004	12	0	9.4117795E-006	5.8459271E+002
2	0	0	1	0	4.954069874849665E+001	-7.6604642E-002	-7.7303290E-002	-1.269416945361883E-001	0	-8.7176869E-004	12	0	9.8130104E-006	6.0896692E+002
2	0	0	1	0	4.960229874694051E+001	-7.9684652E-002	-8.0424175E-002	-1.269722855785496E-001	0	-8.7959558E-004	12	0	1.0211641E-005	6.3339941E+002
2	0	0	1	0	4.966389874538436E+001	-8.2764655E-002	-8.3437160E-002	-1.270263757252634E-001	0	-8.8742521E-004	12	0	1.0598720E-005	6.5684912E+002
2	0	0	1	0	4.972549874382821E+001	-8.5844666E-002	-8.6549267E-002	-1.270525147079000E-001	0	-8.9525717E-004	12	0	1.0996302E-005	6.8120862E+002
2	0	0	1	0	4.978689874227712E+001	-8.8914670E-002	-8.9619897E-002	-1.270944642114531E-001	0	-9.0306607E-004	12	0	1.1390192E-005	7.0514398E+002
2	0	0	1	0	4.984849874072097E+001	-9.1994673E-002	-9.2721775E-002	-1.271327732495443E-001	0	-9.1090280E-004	12	0	1.1787976E-005	7.2933026E+002
2	0	0	1	0	4.991009873916482E+001	-9.5074676E-002	-9.5757835E-002	-1.271771193757203E-001	0	-9.1874204E-004	12	0	1.2178206E-005	7.5294861E+002
2	0	0	1	0	4.997169873760868E+001	-9.8154686E-002	-9.8797008E-002	-1.272181410087724E-001	0	-9.2658337E-004	12	0	1.2568772E-005	7.7659528E+002
2	0	0	1	0	5.000539873675734E+001	-9.9844120E-002	-1.0049205E-001	-1.272321322134562E-001	0	-9.3087379E-004	12	0	1.2785817E-005	7.8983228E+002
2	0	0	1	0	5.000579873674724E+001	-1.0015190E-001	-1.0089274E-001	-1.282835826277733E-001	0	-9.3092513E-004	12	0	1.2942883E-005	7.8648212E+002