mode	ox/red	error	control changes		time/s	control/V	Ewe/V	<I>/mA		(Q-Qo)/C	I Range		Pwe/W	Rwe/Ohm	
3	0	0	1	0	0.000000000000000E+000	0.0000000E+000	4.4610357E-001	0.000000000000000E+000	0	0.0000000E+000	14	0	0.0000000E+000	0.0000000E+000
3	0	0	0	0	2.999979924214131E+001	9.0028149E-001	4.4604632E-001	0.000000000000000E+000	0	0.0000000E+000	14	0	0.0000000E+000	0.0000000E+000
2	1	0	1	0	3.003059924136323E+001	8.9889687E-001	8.9870596E-001	9.538952882091195E-003	0	7.2089665E-007	13	0	8.5727143E-006	9.4214320E+004
2	1	0	1	0	3.006449924050685E+001	8.9720500E-001	8.9715624E-001	6.355217923923365E-003	0	9.4750141E-007	13	0	5.7016232E-006	1.4116845E+005
2	1	0	1	0	3.012609923895070E+001	8.9412487E-001	8.9407927E-001	4.269628909605361E-003	0	1.2649575E-006	13	0	3.8173866E-006	2.0940444E+005
2	1	0	1	0	3.018769923739455E+001	8.9104491E-001	8.9098477E-001	3.482135986440853E-003	0	1.4985042E-006	13	0	3.1025302E-006	2.5587306E+005
2	1	0	1	0	3.026449923545442E+001	8.8720447E-001	8.8717824E-001	2.940064052300798E-003	0	1.7378205E-006	13	0	2.6083608E-006	3.0175472E+005
2	1	0	1	0	3.034149923350924E+001	8.8335490E-001	8.8330966E-001	2.556155017774765E-003	0	1.9503539E-006	14	0	2.2578765E-006	3.4556184E+005
2	1	0	1	0	3.040309923195309E+001	8.8027483E-001	8.8018680E-001	2.361975721870156E-003	0	2.1003627E-006	14	0	2.0789798E-006	3.7264853E+005
2	1	0	1	0	3.046469923039695E+001	8.7719488E-001	8.7715352E-001	2.206050985195593E-003	0	2.2397271E-006	14	0	1.9350455E-006	3.9761253E+005
2	1	0	1	0	3.052609922884585E+001	8.7412483E-001	8.7413359E-001	2.077258840966406E-003	0	2.3699893E-006	14	0	1.8158017E-006	4.2081109E+005
2	1	0	1	0	3.058769922728970E+001	8.7104481E-001	8.7104666E-001	1.965340518844810E-003	0	2.4935073E-006	14	0	1.7119033E-006	4.4320394E+005
2	1	0	1	0	3.064929922573356E+001	8.6796486E-001	8.6795336E-001	1.879402523657025E-003	0	2.6108767E-006	14	0	1.6312338E-006	4.6182409E+005
2	1	0	1	0	3.071089922417741E+001	8.6488485E-001	8.6484963E-001	1.794450145634976E-003	0	2.7230658E-006	14	0	1.5519296E-006	4.8195800E+005
2	1	0	1	0	3.077249922262126E+001	8.6180478E-001	8.6175597E-001	1.722141106824348E-003	0	2.8306254E-006	14	0	1.4840654E-006	5.0039800E+005
2	1	0	1	0	3.083389922107017E+001	8.5873485E-001	8.5871542E-001	1.661594584861172E-003	0	2.9337150E-006	14	0	1.4268369E-006	5.1680200E+005
2	1	0	1	0	3.089549921951402E+001	8.5565490E-001	8.5559648E-001	1.607482732841226E-003	0	3.0336334E-006	14	0	1.3753565E-006	5.3225856E+005
2	1	0	1	0	3.095709921795788E+001	8.5257477E-001	8.5261720E-001	1.554471273832611E-003	0	3.1302322E-006	14	0	1.3253690E-006	5.4849338E+005
2	1	0	1	0	3.101869921640173E+001	8.4949481E-001	8.4949970E-001	1.505836533891095E-003	0	3.2238088E-006	14	0	1.2792077E-006	5.6413806E+005
2	1	0	1	0	3.108009921485063E+001	8.4642476E-001	8.4640366E-001	1.465899181723419E-003	0	3.3143222E-006	14	0	1.2407424E-006	5.7739556E+005
2	1	0	1	0	3.114169921329449E+001	8.4334481E-001	8.4334844E-001	1.430504042834204E-003	0	3.4029069E-006	14	0	1.2064133E-006	5.8954638E+005
2	1	0	1	0	3.120329921173834E+001	8.4026486E-001	8.4029216E-001	1.396918037612511E-003	0	3.4892876E-006	14	0	1.1738192E-006	6.0153288E+005
2	1	0	1	0	3.126489921018219E+001	8.3718479E-001	8.3719397E-001	1.360049412838321E-003	0	3.5734784E-006	14	0	1.1386252E-006	6.1556144E+005
2	1	0	1	0	3.132649920862605E+001	8.3410484E-001	8.3414710E-001	1.337433527661500E-003	0	3.6558474E-006	14	0	1.1156163E-006	6.2369238E+005
2	1	0	1	0	3.138789920707495E+001	8.3103484E-001	8.3107418E-001	1.304707328603629E-003	0	3.7361292E-006	14	0	1.0843086E-006	6.3698131E+005
2	1	0	1	0	3.144949920551881E+001	8.2795477E-001	8.2800215E-001	1.277859513677527E-003	0	3.8149860E-006	14	0	1.0580704E-006	6.4796025E+005
2	1	0	1	0	3.151109920396266E+001	8.2487476E-001	8.2492101E-001	1.255512521807750E-003	0	3.8923918E-006	14	0	1.0356987E-006	6.5703925E+005
2	1	0	1	0	3.157269920240651E+001	8.2179475E-001	8.2181203E-001	1.234986223101863E-003	0	3.9684855E-006	14	0	1.0149265E-006	6.6544225E+005
2	1	0	1	0	3.163409920085542E+001	8.1872475E-001	8.1874043E-001	1.213846696679406E-003	0	4.0429472E-006	14	0	9.9382532E-007	6.7450069E+005
2	1	0	1	0	3.169569919929927E+001	8.1564480E-001	8.1570029E-001	1.196393212916688E-003	0	4.1164658E-006	14	0	9.7589827E-007	6.8179950E+005
2	1	0	1	0	3.175729919774312E+001	8.1256479E-001	8.1260556E-001	1.177094536818509E-003	0	4.1888093E-006	14	0	9.5651353E-007	6.9034863E+005
2	1	0	1	0	3.181889919618698E+001	8.0948466E-001	8.0954212E-001	1.158451612073345E-003	0	4.2600614E-006	14	0	9.3781540E-007	6.9881394E+005
2	1	0	1	0	3.188049919463083E+001	8.0640477E-001	8.0647099E-001	1.141075783387329E-003	0	4.3302666E-006	14	0	9.2024453E-007	7.0676375E+005
2	1	0	1	0	3.194189919307973E+001	8.0333471E-001	8.0340594E-001	1.125654918104213E-003	0	4.3991831E-006	14	0	9.0435788E-007	7.1372313E+005
2	1	0	1	0	3.200349919152359E+001	8.0025470E-001	8.0032611E-001	1.110557838278632E-003	0	4.4674107E-006	14	0	8.8880842E-007	7.2065231E+005
2	1	0	1	0	3.206509918996744E+001	7.9717475E-001	7.9722089E-001	1.098874164072774E-003	0	4.5347761E-006	14	0	8.7604542E-007	7.2548881E+005
2	1	0	1	0	3.212669918841129E+001	7.9409474E-001	7.9418886E-001	1.089949527407850E-003	0	4.6014552E-006	14	0	8.6562579E-007	7.2864738E+005
2	1	0	1	0	3.218809918686020E+001	7.9102474E-001	7.9114407E-001	1.077735458770472E-003	0	4.6671848E-006	14	0	8.5264401E-007	7.3408000E+005
2	1	0	1	0	3.224969918530405E+001	7.8794461E-001	7.8801483E-001	1.065206512595680E-003	0	4.7324288E-006	14	0	8.3939852E-007	7.3977656E+005
2	1	0	1	0	3.231129918374791E+001	7.8486466E-001	7.8496683E-001	1.054955428752611E-003	0	4.7970020E-006	14	0	8.2810499E-007	7.4407581E+005
2	1	0	1	0	3.237289918219176E+001	7.8178471E-001	7.8177869E-001	1.041662791335165E-003	0	4.8608922E-006	14	0	8.1434979E-007	7.5051031E+005
2	1	0	1	0	3.243449918063561E+001	7.7870470E-001	7.7877766E-001	1.035077725188748E-003	0	4.9241662E-006	14	0	8.0609539E-007	7.5238569E+005
2	1	0	1	0	3.249589917908452E+001	7.7563471E-001	7.7567631E-001	1.025863242382843E-003	0	4.9866212E-006	14	0	7.9573783E-007	7.5612056E+005
2	1	0	1	0	3.255749917752837E+001	7.7255470E-001	7.7263749E-001	1.018942307545670E-003	0	5.0487520E-006	14	0	7.8727300E-007	7.5827400E+005
2	1	0	1	0	3.261909917597222E+001	7.6947469E-001	7.6954716E-001	1.009827563972627E-003	0	5.1103461E-006	14	0	7.7710996E-007	7.6205800E+005
2	1	0	1	0	3.268069917441608E+001	7.6639462E-001	7.6651114E-001	9.985732571326914E-004	0	5.1714410E-006	14	0	7.6541755E-007	7.6760631E+005
2	1	0	1	0	3.274209917286498E+001	7.6332468E-001	7.6340222E-001	9.926533022311061E-004	0	5.2317973E-006	14	0	7.5779371E-007	7.6905219E+005
2	1	0	1	0	3.280369917130884E+001	7.6024461E-001	7.6030976E-001	9.889873051678079E-004	0	5.2920359E-006	14	0	7.5193668E-007	7.6877606E+005
2	1	0	1	0	3.286529916975269E+001	7.5716466E-001	7.5720590E-001	9.817276038534854E-004	0	5.3518493E-006	14	0	7.4336992E-007	7.7129938E+005
2	1	0	1	0	3.292689916819654E+001	7.5408471E-001	7.5421011E-001	9.770428366243909E-004	0	5.4112697E-006	14	0	7.3689557E-007	7.7193150E+005
2	1	0	1	0	3.298849916664039E+001	7.5100464E-001	7.5112569E-001	9.698325017321128E-004	0	5.4702882E-006	14	0	7.2846609E-007	7.7449013E+005
2	1	0	1	0	3.304989916508930E+001	7.4793464E-001	7.4801552E-001	9.621105631777462E-004	0	5.5286487E-006	14	0	7.1967361E-007	7.7747356E+005
2	1	0	1	0	3.311149916353315E+001	7.4485457E-001	7.4494553E-001	9.545468674683841E-004	0	5.5868209E-006	14	0	7.1108542E-007	7.8041794E+005
2	1	0	1	0	3.317309916197701E+001	7.4177456E-001	7.4181730E-001	9.502081786552175E-004	0	5.6447243E-006	14	0	7.0488085E-007	7.8068925E+005
2	1	0	1	0	3.323469916042086E+001	7.3869461E-001	7.3876274E-001	9.465520562382847E-004	0	5.7023381E-006	14	0	6.9927739E-007	7.8047769E+005
2	1	0	1	0	3.329609915886977E+001	7.3562461E-001	7.3571730E-001	9.421569182971132E-004	0	5.7593252E-006	14	0	6.9316116E-007	7.8088619E+005
2	1	0	1	0	3.335769915731362E+001	7.3254460E-001	7.3261356E-001	9.370420713791022E-004	0	5.8161995E-006	14	0	6.8648973E-007	7.8183638E+005
2	1	0	1	0	3.341929915575747E+001	7.2946459E-001	7.2955191E-001	9.307201332044938E-004	0	5.8728046E-006	14	0	6.7900868E-007	7.8385744E+005
2	1	0	1	0	3.348089915420132E+001	7.2638458E-001	7.2644192E-001	9.281822147763689E-004	0	5.9291892E-006	14	0	6.7427050E-007	7.8265013E+005
2	1	0	1	0	3.354249915264518E+001	7.2330457E-001	7.2334111E-001	9.228285165519016E-004	0	5.9853096E-006	14	0	6.6751983E-007	7.8383044E+005
2	1	0	1	0	3.360389915109408E+001	7.2023457E-001	7.2033954E-001	9.205621721513953E-004	0	6.0408911E-006	14	0	6.6311731E-007	7.8249963E+005
2	1	0	1	0	3.366549914953794E+001	7.1715456E-001	7.1723533E-001	9.164417619305608E-004	0	6.0964749E-006	14	0	6.5730438E-007	7.8263056E+005
2	1	0	1	0	3.372709914798179E+001	7.1407455E-001	7.1417183E-001	9.123231507769929E-004	0	6.1517953E-006	14	0	6.5155547E-007	7.8280575E+005
2	1	0	1	0	3.378869914642564E+001	7.1099460E-001	7.1108675E-001	9.103484520103736E-004	0	6.2068752E-006	14	0	6.4733672E-007	7.8111494E+005
2	1	0	1	0	3.385009914487455E+001	7.0792454E-001	7.0795971E-001	9.026018166595649E-004	0	6.2615031E-006	14	0	6.3900575E-007	7.8435438E+005
2	1	0	1	0	3.391169914331840E+001	7.0484459E-001	7.0489758E-001	8.993493471067746E-004	0	6.3160642E-006	14	0	6.3394918E-007	7.8378619E+005
2	1	0	1	0	3.397329914176225E+001	7.0176464E-001	7.0179653E-001	8.932153310365724E-004	0	6.3703405E-006	14	0	6.2685541E-007	7.8569694E+005
2	1	0	1	0	3.403489914020611E+001	6.9868451E-001	6.9869161E-001	8.926414542153992E-004	0	6.4244314E-006	14	0	6.2368110E-007	7.8272369E+005
2	1	0	1	0	3.409649913864996E+001	6.9560456E-001	6.9563800E-001	8.915373661998946E-004	0	6.4783480E-006	14	0	6.2018728E-007	7.8026794E+005
2	1	0	1	0	3.415789913709887E+001	6.9253457E-001	6.9259858E-001	8.882068386846034E-004	0	6.5318782E-006	14	0	6.1517079E-007	7.7977175E+005
2	1	0	1	0	3.421949913554272E+001	6.8945456E-001	6.8956363E-001	8.834137103833658E-004	0	6.5853992E-006	14	0	6.0916994E-007	7.8056706E+005
2	1	0	1	0	3.428109913398657E+001	6.8637455E-001	6.8641537E-001	8.798580064362672E-004	0	6.6387270E-006	14	0	6.0394808E-007	7.8014338E+005
2	1	0	1	0	3.434269913243043E+001	6.8329453E-001	6.8333995E-001	8.773336587894441E-004	0	6.6919579E-006	14	0	5.9951714E-007	7.7888263E+005
2	1	0	1	0	3.440419913087680E+001	6.8022013E-001	6.8026906E-001	8.756632826759161E-004	0	6.7449105E-006	14	0	5.9568663E-007	7.7686144E+005
2	1	0	1	0	3.446569912932318E+001	6.7714560E-001	6.7715722E-001	8.763630946332750E-004	0	6.7977226E-006	14	0	5.9343557E-007	7.7269025E+005
2	1	0	1	0	3.452729912776704E+001	6.7406559E-001	6.7411095E-001	8.722504497638284E-004	0	6.8505169E-006	14	0	5.8799355E-007	7.7284106E+005
2	1	0	1	0	3.458889912621089E+001	6.7098558E-001	6.7101133E-001	8.689158525057462E-004	0	6.9030475E-006	14	0	5.8305238E-007	7.7223969E+005
2	1	0	1	0	3.465049912465474E+001	6.6790563E-001	6.6799986E-001	8.701436857731192E-004	0	6.9554781E-006	14	0	5.8125585E-007	7.6768913E+005
2	1	0	1	0	3.471189912310365E+001	6.6483557E-001	6.6488063E-001	8.662761127281055E-004	0	7.0076117E-006	14	0	5.7597020E-007	7.6751581E+005
2	1	0	1	0	3.477349912154750E+001	6.6175562E-001	6.6180289E-001	8.594469668537653E-004	0	7.0597157E-006	14	0	5.6878446E-007	7.7003344E+005
2	1	0	1	0	3.483509911999136E+001	6.5867561E-001	6.5868109E-001	8.557723485175545E-004	0	7.1116242E-006	14	0	5.6368106E-007	7.6969194E+005
2	1	0	1	0	3.489669911843521E+001	6.5559554E-001	6.5563428E-001	8.597408704907310E-004	0	7.1634236E-006	14	0	5.6367560E-007	7.6259525E+005
2	1	0	1	0	3.495829911687906E+001	6.5251559E-001	6.5257382E-001	8.569024057535173E-004	0	7.2151429E-006	14	0	5.5919207E-007	7.6154975E+005
2	1	0	1	0	3.501969911532797E+001	6.4944553E-001	6.4947629E-001	8.524313601657469E-004	0	7.2664038E-006	14	0	5.5363398E-007	7.6191038E+005
2	1	0	1	0	3.508129911377182E+001	6.4636552E-001	6.4644784E-001	8.460955580444169E-004	0	7.3175929E-006	14	0	5.4695664E-007	7.6403644E+005
2	1	0	1	0	3.514289911221567E+001	6.4328551E-001	6.4327711E-001	8.439622766969745E-004	0	7.3685778E-006	14	0	5.4290160E-007	7.6221075E+005
2	1	0	1	0	3.520449911065953E+001	6.4020556E-001	6.4029753E-001	8.437032421445174E-004	0	7.4194991E-006	14	0	5.4022109E-007	7.5891319E+005
2	1	0	1	0	3.526589910910843E+001	6.3713557E-001	6.3716233E-001	8.422294728882094E-004	0	7.4701434E-006	14	0	5.3663689E-007	7.5651869E+005
2	1	0	1	0	3.532749910755228E+001	6.3405550E-001	6.3415056E-001	8.391873870973472E-004	0	7.5207699E-006	14	0	5.3217116E-007	7.5567219E+005
2	1	0	1	0	3.538909910599614E+001	6.3097554E-001	6.3103354E-001	8.380530298636134E-004	0	7.5712319E-006	14	0	5.2883956E-007	7.5297569E+005
2	1	0	1	0	3.545069910443999E+001	6.2789553E-001	6.2793678E-001	8.329181725842084E-004	0	7.6215151E-006	14	0	5.2301993E-007	7.5389975E+005
2	1	0	1	0	3.551229910288384E+001	6.2481552E-001	6.2482876E-001	8.299036496958083E-004	0	7.6716397E-006	14	0	5.1854767E-007	7.5289313E+005
2	1	0	1	0	3.557369910133275E+001	6.2174553E-001	6.2176353E-001	8.289999173472107E-004	0	7.7214627E-006	14	0	5.1544191E-007	7.5001638E+005
2	1	0	1	0	3.563529909977660E+001	6.1866552E-001	6.1867148E-001	8.276778712461106E-004	0	7.7713339E-006	14	0	5.1206069E-007	7.4747856E+005
2	1	0	1	0	3.569689909822046E+001	6.1558557E-001	6.1561942E-001	8.248149317732559E-004	0	7.8209769E-006	14	0	5.0777209E-007	7.4637281E+005
2	1	0	1	0	3.575849909666431E+001	6.1250550E-001	6.1253679E-001	8.193511181782175E-004	0	7.8704261E-006	14	0	5.0188271E-007	7.4758769E+005
2	1	0	1	0	3.581989909511321E+001	6.0943550E-001	6.0944802E-001	8.148305397617296E-004	0	7.9195561E-006	14	0	4.9659684E-007	7.4794450E+005
2	1	0	1	0	3.588149909355707E+001	6.0635549E-001	6.0638630E-001	8.139695280342819E-004	0	7.9686579E-006	14	0	4.9357999E-007	7.4497419E+005
2	1	0	1	0	3.594309909200092E+001	6.0327548E-001	6.0328221E-001	8.144214872924972E-004	0	8.0176706E-006	14	0	4.9132598E-007	7.4074938E+005
2	1	0	1	0	3.600469909044477E+001	6.0019553E-001	6.0022825E-001	8.097782304228823E-004	0	8.0665095E-006	14	0	4.8605176E-007	7.4122550E+005
2	1	0	1	0	3.606629908888863E+001	5.9711546E-001	5.9716243E-001	8.077424636011490E-004	0	8.1150765E-006	14	0	4.8235347E-007	7.3929806E+005
2	1	0	1	0	3.612769908733753E+001	5.9404552E-001	5.9403670E-001	8.016616800096167E-004	0	8.1633316E-006	14	0	4.7621646E-007	7.4100675E+005
2	1	0	1	0	3.618929908578139E+001	5.9096539E-001	5.9093493E-001	7.991564417573743E-004	0	8.2114930E-006	14	0	4.7224947E-007	7.3944838E+005
2	1	0	1	0	3.625089908422524E+001	5.8788544E-001	5.8789557E-001	7.985352965556108E-004	0	8.2594761E-006	14	0	4.6945536E-007	7.3621738E+005
2	1	0	1	0	3.631249908266909E+001	5.8480543E-001	5.8481938E-001	7.967456675013664E-004	0	8.3073219E-006	14	0	4.6595230E-007	7.3401013E+005
2	1	0	1	0	3.637389908111800E+001	5.8173543E-001	5.8173984E-001	7.928416016061333E-004	0	8.3548539E-006	14	0	4.6122756E-007	7.3374031E+005
2	1	0	1	0	3.643549907956185E+001	5.7865542E-001	5.7864696E-001	7.872584396381790E-004	0	8.4024014E-006	14	0	4.5554469E-007	7.3501525E+005
2	1	0	1	0	3.649709907800570E+001	5.7557547E-001	5.7557589E-001	7.820978954897421E-004	0	8.4496533E-006	14	0	4.5015670E-007	7.3593844E+005
2	1	0	1	0	3.655869907644956E+001	5.7249552E-001	5.7249796E-001	7.801439623681995E-004	0	8.4965786E-006	14	0	4.4663082E-007	7.3383631E+005
2	1	0	1	0	3.662029907489341E+001	5.6941539E-001	5.6943268E-001	7.787650887054933E-004	0	8.5433239E-006	14	0	4.4345430E-007	7.3119956E+005
2	1	0	1	0	3.668169907334232E+001	5.6634545E-001	5.6636816E-001	7.745720139611450E-004	0	8.5897582E-006	14	0	4.3869292E-007	7.3120144E+005
2	1	0	1	0	3.674329907178617E+001	5.6326544E-001	5.6332499E-001	7.708922930320036E-004	0	8.6360687E-006	14	0	4.3426289E-007	7.3074406E+005
2	1	0	1	0	3.680489907023002E+001	5.6018543E-001	5.6017023E-001	7.647652538940643E-004	0	8.6820864E-006	14	0	4.2839872E-007	7.3247344E+005
2	1	0	1	0	3.686649906867387E+001	5.5710542E-001	5.5713159E-001	7.582957700681368E-004	0	8.7278468E-006	14	0	4.2247052E-007	7.3471544E+005
2	1	0	1	0	3.692789906712278E+001	5.5403543E-001	5.5405051E-001	7.558274443719253E-004	0	8.7731632E-006	14	0	4.1876658E-007	7.3303838E+005
2	1	0	1	0	3.698949906556663E+001	5.5095541E-001	5.5096638E-001	7.491841339862960E-004	0	8.8182251E-006	14	0	4.1277528E-007	7.3542188E+005
2	1	0	1	0	3.705109906401049E+001	5.4787534E-001	5.4785830E-001	7.424763036771656E-004	0	8.8629668E-006	14	0	4.0677182E-007	7.3787981E+005
2	1	0	1	0	3.711269906245434E+001	5.4479539E-001	5.4471624E-001	7.371093563390205E-004	0	8.9073537E-006	14	0	4.0151545E-007	7.3898975E+005
2	1	0	1	0	3.717429906089819E+001	5.4171538E-001	5.4165566E-001	7.297749748669171E-004	0	8.9513478E-006	14	0	3.9528675E-007	7.4222288E+005
2	1	0	1	0	3.723569905934710E+001	5.3864539E-001	5.3861350E-001	7.245362542533146E-004	0	8.9948335E-006	14	0	3.9024502E-007	7.4339069E+005
2	1	0	1	0	3.729729905779095E+001	5.3556538E-001	5.3556067E-001	7.172493779364977E-004	0	9.0379417E-006	14	0	3.8413054E-007	7.4668681E+005
2	1	0	1	0	3.735889905623480E+001	5.3248537E-001	5.3245872E-001	7.103830386337804E-004	0	9.0806288E-006	14	0	3.7824964E-007	7.4953750E+005
2	1	0	1	0	3.742049905467866E+001	5.2940536E-001	5.2939129E-001	7.051477140757063E-004	0	9.1229058E-006	14	0	3.7329906E-007	7.5075231E+005
2	1	0	1	0	3.748189905312756E+001	5.2633530E-001	5.2628636E-001	6.910279994197504E-004	0	9.1644943E-006	14	0	3.6367862E-007	7.6159919E+005
2	1	0	1	0	3.754349905157142E+001	5.2325535E-001	5.2320039E-001	6.814439015336020E-004	0	9.2055843E-006	14	0	3.5653173E-007	7.6778206E+005
2	1	0	1	0	3.760509905001527E+001	5.2017534E-001	5.2018249E-001	6.752389752553087E-004	0	9.2460959E-006	14	0	3.5124748E-007	7.7036800E+005
2	1	0	1	0	3.766669904845912E+001	5.1709533E-001	5.1707727E-001	6.632184636775739E-004	0	9.2859273E-006	14	0	3.4293518E-007	7.7964850E+005
2	1	0	1	0	3.772829904690298E+001	5.1401538E-001	5.1397443E-001	6.514210808825434E-004	0	9.3250674E-006	14	0	3.3481379E-007	7.8900488E+005
2	1	0	1	0	3.778969904535188E+001	5.1094532E-001	5.1092273E-001	6.369817749136333E-004	0	9.3633244E-006	14	0	3.2544847E-007	8.0209944E+005
2	1	0	1	0	3.785129904379573E+001	5.0786537E-001	5.0780731E-001	6.239423662394760E-004	0	9.4008328E-006	14	0	3.1684249E-007	8.1386894E+005
2	1	0	1	0	3.791289904223959E+001	5.0478530E-001	5.0469154E-001	6.081675894279645E-004	0	9.4374745E-006	14	0	3.0693704E-007	8.2985600E+005
2	1	0	1	0	3.797449904068344E+001	5.0170529E-001	5.0160474E-001	5.902419077650663E-004	0	9.4730785E-006	14	0	2.9606812E-007	8.4982906E+005
2	1	0	1	0	3.803589903913235E+001	4.9863532E-001	4.9854347E-001	5.746766836692910E-004	0	9.5075056E-006	14	0	2.8650132E-007	8.6751994E+005
2	1	0	1	0	3.809749903757620E+001	4.9555534E-001	4.9550620E-001	5.561730564005562E-004	0	9.5409023E-006	14	0	2.7558718E-007	8.9092088E+005
2	1	0	1	0	3.815909903602005E+001	4.9247530E-001	4.9242923E-001	5.343063900340992E-004	0	9.5730375E-006	14	0	2.6310809E-007	9.2162331E+005
2	1	0	1	0	3.822069903446391E+001	4.8939526E-001	4.8936641E-001	5.096080124325727E-004	0	9.6038202E-006	14	0	2.4938504E-007	9.6028006E+005
2	1	0	1	0	3.828229903290776E+001	4.8631531E-001	4.8620623E-001	4.847561867153943E-004	0	9.6331196E-006	14	0	2.3569147E-007	1.0029913E+006
2	1	0	1	0	3.834369903135666E+001	4.8324522E-001	4.8316419E-001	4.577604439156677E-004	0	9.6606609E-006	14	0	2.2117345E-007	1.0554958E+006
2	1	0	1	0	3.840529902980052E+001	4.8016527E-001	4.8011327E-001	4.285759103183867E-004	0	9.6864596E-006	14	0	2.0576498E-007	1.1202526E+006
2	1	0	1	0	3.846689902824437E+001	4.7708529E-001	4.7697425E-001	3.939615211604507E-004	0	9.7102766E-006	14	0	1.8790951E-007	1.2107128E+006
2	1	0	1	0	3.852849902668822E+001	4.7400528E-001	4.7391608E-001	3.558053742657085E-004	0	9.7318925E-006	14	0	1.6862190E-007	1.3319531E+006
2	1	0	1	0	3.858989902513713E+001	4.7093529E-001	4.7085065E-001	3.149891110386001E-004	0	9.7510210E-006	14	0	1.4831282E-007	1.4948156E+006
2	1	0	1	0	3.865149902358098E+001	4.6785522E-001	4.6773592E-001	2.694430323665175E-004	0	9.7675265E-006	14	0	1.2602818E-007	1.7359363E+006
2	1	0	1	0	3.871309902202484E+001	4.6477526E-001	4.6463519E-001	2.205429251882119E-004	0	9.7810735E-006	14	0	1.0247201E-007	2.1067790E+006
2	1	0	1	0	3.877469902046869E+001	4.6169522E-001	4.6160668E-001	1.660983389827996E-004	0	9.7914362E-006	14	0	7.6672102E-008	2.7791168E+006
2	1	0	1	0	3.883629901891254E+001	4.5861521E-001	4.5851445E-001	1.044982608578713E-004	0	9.7981338E-006	14	0	4.7913964E-008	4.3877710E+006
2	1	0	1	0	3.889769901736145E+001	4.5554522E-001	4.5537856E-001	3.739848747633627E-005	0	9.8008750E-006	14	0	1.7030469E-008	1.2176390E+007
2	1	0	1	0	3.895929901580530E+001	4.5246524E-001	4.5231023E-001	-3.745917968902865E-005	0	9.7993052E-006	14	0	-1.6943170E-008	1.2074750E+007
2	0	0	1	0	3.902089901424915E+001	4.4938523E-001	4.4924548E-001	-1.165694629211247E-004	0	9.7929596E-006	14	0	-5.2368303E-008	3.8538865E+006
2	0	0	1	0	3.908249901269301E+001	4.4630519E-001	4.4616234E-001	-2.042145260294391E-004	0	9.7813045E-006	14	0	-9.1112831E-008	2.1847728E+006
2	0	0	1	0	3.914389901114191E+001	4.4323522E-001	4.4310680E-001	-3.044151339574482E-004	0	9.7638367E-006	14	0	-1.3488841E-007	1.4556004E+006
2	0	0	1	0	3.920549900958576E+001	4.4015518E-001	4.4006217E-001	-4.151954050547538E-004	0	9.7398088E-006	14	0	-1.8271179E-007	1.0598918E+006
2	0	0	1	0	3.926709900802962E+001	4.3707520E-001	4.3693629E-001	-5.387643909969975E-004	0	9.7085922E-006	14	0	-2.3540571E-007	8.1099700E+005
2	0	0	1	0	3.932869900647347E+001	4.3399522E-001	4.3381995E-001	-6.701448062516680E-004	0	9.6694394E-006	14	0	-2.9072220E-007	6.4735256E+005
2	0	0	1	0	3.939029900491732E+001	4.3091515E-001	4.3074092E-001	-8.177017162716484E-004	0	9.6215608E-006	14	0	-3.5221760E-007	5.2677025E+005
2	0	0	1	0	3.945169900336623E+001	4.2784515E-001	4.2768079E-001	-9.826305519435308E-004	0	9.5642190E-006	14	0	-4.2025221E-007	4.3524069E+005
2	0	0	1	0	3.951329900181008E+001	4.2476514E-001	4.2459506E-001	-1.158810675840291E-003	0	9.4960023E-006	14	0	-4.9202526E-007	3.6640591E+005
2	0	0	1	0	3.957489900025394E+001	4.2168519E-001	4.2147267E-001	-1.357884322319293E-003	0	9.4160878E-006	14	0	-5.7231114E-007	3.1038922E+005
2	0	0	1	0	3.963649899869779E+001	4.1860515E-001	4.1843769E-001	-1.578876283655445E-003	0	9.3232102E-006	14	0	-6.6066133E-007	2.6502247E+005
2	0	0	1	0	3.969789899714669E+001	4.1553515E-001	4.1533437E-001	-1.818378729392334E-003	0	9.2163909E-006	14	0	-7.5523519E-007	2.2840917E+005
2	0	0	1	0	3.975949899559055E+001	4.1245517E-001	4.1225585E-001	-2.079869127378184E-003	0	9.0936937E-006	14	0	-8.5743824E-007	1.9821241E+005
2	0	0	1	0	3.982109899403440E+001	4.0937510E-001	4.0921673E-001	-2.370232378346646E-003	0	8.9537598E-006	14	0	-9.6993870E-007	1.7264836E+005
2	0	0	1	0	3.988269899247825E+001	4.0629515E-001	4.0610513E-001	-2.694142863664893E-003	0	8.7946528E-006	14	0	-1.0941052E-006	1.5073630E+005
2	0	0	1	0	3.994429899092211E+001	4.0321514E-001	4.0304631E-001	-3.049282084982105E-003	0	8.6145892E-006	14	0	-1.2290019E-006	1.3217744E+005
2	0	0	1	0	4.000569898937101E+001	4.0014511E-001	3.9994118E-001	-3.433951166796567E-003	0	8.4122767E-006	14	0	-1.3733785E-006	1.1646677E+005
2	0	0	1	0	4.006729898781487E+001	3.9706510E-001	3.9685428E-001	-3.861773583248372E-003	0	8.1840908E-006	14	0	-1.5325613E-006	1.0276477E+005
2	0	0	1	0	4.012889898625872E+001	3.9398509E-001	3.9374584E-001	-4.328815848023741E-003	0	7.9280890E-006	14	0	-1.7044532E-006	9.0959250E+004
2	0	0	1	0	4.019049898470257E+001	3.9090514E-001	3.9062938E-001	-4.839375774345955E-003	0	7.6416818E-006	14	0	-1.8904024E-006	8.0718961E+004
2	0	0	1	0	4.025189898315148E+001	3.8783506E-001	3.8751739E-001	-5.407142001086309E-003	0	7.3228875E-006	14	0	-2.0953617E-006	7.1667695E+004
2	0	0	1	0	4.031349898159533E+001	3.8475507E-001	3.8445583E-001	-6.018929411706786E-003	0	6.9664093E-006	14	0	-2.3140126E-006	6.3874453E+004
2	0	0	1	0	4.037509898003918E+001	3.8167509E-001	3.8142797E-001	-6.689668333221779E-003	0	6.5701247E-006	14	0	-2.5516267E-006	5.7017473E+004
2	0	0	1	0	4.043669897848304E+001	3.7859508E-001	3.7832853E-001	-7.431363689664992E-003	0	6.1300698E-006	14	0	-2.8114969E-006	5.0909703E+004
2	0	0	1	0	4.049829897692689E+001	3.7551507E-001	3.7526476E-001	-8.232226555569867E-003	0	5.6421750E-006	14	0	-3.0892645E-006	4.5584844E+004
2	0	0	1	0	4.055969897537580E+001	3.7244508E-001	3.7215886E-001	-9.098299280969724E-003	0	5.1045140E-006	14	0	-3.3860126E-006	4.0904223E+004
2	0	0	1	0	4.062129897381965E+001	3.6936510E-001	3.6910379E-001	-1.005945464764603E-002	0	4.5083489E-006	14	0	-3.7129828E-006	3.6692227E+004
2	0	0	1	0	4.071369897148543E+001	3.6474505E-001	3.6446926E-001	-1.162494488263960E-002	0	3.4928007E-006	13	0	-4.2369352E-006	3.1352344E+004
2	0	0	1	0	4.077529896992928E+001	3.6166504E-001	3.6136416E-001	-1.278674097927876E-002	0	2.7329247E-006	13	0	-4.6206696E-006	2.8260850E+004
2	0	0	1	0	4.083669896837819E+001	3.5859507E-001	3.5831174E-001	-1.408904388723894E-002	0	1.8994044E-006	13	0	-5.0482699E-006	2.5431941E+004
2	0	0	1	0	4.089829896682204E+001	3.5551506E-001	3.5523751E-001	-1.546912919883845E-002	0	9.8011890E-007	13	0	-5.4952152E-006	2.2964287E+004
2	0	0	1	0	4.095989896526589E+001	3.5243502E-001	3.5214821E-001	-1.698711504255351E-002	0	-2.8936073E-008	13	0	-5.9819822E-006	2.0730313E+004
2	0	0	1	0	4.102149896370975E+001	3.4935504E-001	3.4903148E-001	-1.862130141679939E-002	0	-1.1354393E-006	13	0	-6.4994206E-006	1.8743668E+004
2	0	0	1	0	4.108289896215865E+001	3.4628505E-001	3.4597996E-001	-2.035898682106402E-002	0	-2.3424639E-006	13	0	-7.0438014E-006	1.6993967E+004
2	0	0	1	0	4.114449896060250E+001	3.4320506E-001	3.4289584E-001	-2.224834195648157E-002	0	-3.6654292E-006	13	0	-7.6288638E-006	1.5412197E+004
2	0	0	1	0	4.120609895904636E+001	3.4012499E-001	3.3981586E-001	-2.426405822236123E-002	0	-5.1091160E-006	13	0	-8.2453116E-006	1.4004906E+004
2	0	0	1	0	4.126769895749021E+001	3.3704501E-001	3.3677223E-001	-2.643180443897762E-002	0	-6.6822904E-006	13	0	-8.9014975E-006	1.2741175E+004
2	0	0	1	0	4.132929895593406E+001	3.3396503E-001	3.3369690E-001	-2.873084930452802E-002	0	-8.3934201E-006	13	0	-9.5873957E-006	1.1614585E+004
2	0	0	1	0	4.139069895438297E+001	3.3089498E-001	3.3059981E-001	-3.119252890262625E-002	0	-1.0245572E-005	13	0	-1.0312244E-005	1.0598686E+004
2	0	0	1	0	4.145229895282682E+001	3.2781497E-001	3.2751465E-001	-3.386858435817502E-002	0	-1.2262841E-005	13	0	-1.1092457E-005	9.6701602E+003
2	0	0	1	0	4.151389895127068E+001	3.2473499E-001	3.2444134E-001	-3.670153687646438E-002	0	-1.4450351E-005	13	0	-1.1907496E-005	8.8399932E+003
2	0	0	1	0	4.157549894971453E+001	3.2165498E-001	3.2138202E-001	-3.968847258825703E-002	0	-1.6817732E-005	13	0	-1.2755161E-005	8.0976162E+003
2	0	0	1	0	4.163689894816343E+001	3.1858498E-001	3.1824788E-001	-4.290028989873962E-002	0	-1.9368392E-005	13	0	-1.3652926E-005	7.4183154E+003
2	0	0	1	0	4.169849894660729E+001	3.1550497E-001	3.1520021E-001	-4.627844764637618E-002	0	-2.2131007E-005	13	0	-1.4586976E-005	6.8109502E+003
2	0	0	1	0	4.176009894505114E+001	3.1242499E-001	3.1211948E-001	-4.984337425113811E-002	0	-2.5108409E-005	13	0	-1.5557089E-005	6.2620054E+003
2	0	0	1	0	4.182169894349499E+001	3.0934495E-001	3.0899462E-001	-5.361592271630999E-002	0	-2.8312188E-005	13	0	-1.6567032E-005	5.7631128E+003
2	0	0	1	0	4.188329894193885E+001	3.0626500E-001	3.0594236E-001	-5.752340004227349E-002	0	-3.1753199E-005	13	0	-1.7598844E-005	5.3185723E+003
2	0	0	1	0	4.194469894038775E+001	3.0319494E-001	3.0286658E-001	-6.163060384341729E-002	0	-3.5429755E-005	13	0	-1.8665851E-005	4.9142236E+003
2	0	0	1	0	4.200629893883161E+001	3.0011493E-001	2.9977316E-001	-6.597371558772946E-002	0	-3.9379109E-005	13	0	-1.9777150E-005	4.5438271E+003
2	0	0	1	0	4.206789893727546E+001	2.9703492E-001	2.9668474E-001	-7.046347279855703E-002	0	-4.3601489E-005	13	0	-2.0905438E-005	4.2104756E+003
2	0	0	1	0	4.212949893571931E+001	2.9395494E-001	2.9368281E-001	-7.512112802541515E-002	0	-4.8105725E-005	13	0	-2.2061784E-005	3.9094570E+003
2	0	0	1	0	4.219089893416822E+001	2.9088497E-001	2.9055312E-001	-7.996925698893921E-002	0	-5.2888103E-005	13	0	-2.3235318E-005	3.6333103E+003
2	0	0	1	0	4.225249893261207E+001	2.8780490E-001	2.8748938E-001	-8.490141707718912E-002	0	-5.7988396E-005	13	0	-2.4408257E-005	3.3861553E+003
2	0	0	1	0	4.231409893105592E+001	2.8472495E-001	2.8442976E-001	-9.004944546685492E-002	0	-6.3399377E-005	13	0	-2.5612742E-005	3.1585955E+003
2	0	0	1	0	4.237569892949978E+001	2.8164491E-001	2.8133422E-001	-9.538632193790009E-002	0	-6.9134156E-005	13	0	-2.6835436E-005	2.9494189E+003
2	0	0	1	0	4.243729892794363E+001	2.7856490E-001	2.7825159E-001	-1.008930741653369E-001	0	-7.5203658E-005	13	0	-2.8073659E-005	2.7578860E+003
2	0	0	1	0	4.251099892608181E+001	2.7487987E-001	2.7454966E-001	-1.075825047310039E-001	0	-8.2951257E-005	13	0	-2.9536741E-005	2.5519917E+003
2	0	0	1	0	4.258489892421494E+001	2.7118489E-001	2.7082711E-001	-1.143006066950538E-001	0	-9.1140661E-005	12	0	-3.0955704E-005	2.3694285E+003
2	0	0	1	0	4.264649892265879E+001	2.6810491E-001	2.6777521E-001	-1.201525885428776E-001	0	-9.8389028E-005	12	0	-3.2173884E-005	2.2286262E+003
2	0	0	1	0	4.270809892110265E+001	2.6502487E-001	2.6471981E-001	-1.260618086848735E-001	0	-1.0599912E-004	12	0	-3.3371060E-005	2.0999209E+003
2	0	0	1	0	4.276969891954650E+001	2.6194486E-001	2.6163858E-001	-1.319696865862667E-001	0	-1.1397385E-004	12	0	-3.4528362E-005	1.9825658E+003
2	0	0	1	0	4.283109891799540E+001	2.5887489E-001	2.5853589E-001	-1.380970615771121E-001	0	-1.2229280E-004	12	0	-3.5703048E-005	1.8721317E+003
2	0	0	1	0	4.289269891643926E+001	2.5579485E-001	2.5547636E-001	-1.441418417248643E-001	0	-1.3101356E-004	12	0	-3.6824833E-005	1.7723955E+003
2	0	0	1	0	4.295429891488311E+001	2.5271487E-001	2.5240016E-001	-1.501921556483825E-001	0	-1.4010716E-004	12	0	-3.7908525E-005	1.6805149E+003
2	0	0	1	0	4.301589891332696E+001	2.4963485E-001	2.4935253E-001	-1.562887349834088E-001	0	-1.4957529E-004	12	0	-3.8970993E-005	1.5954607E+003
2	0	0	1	0	4.307729891177587E+001	2.4656487E-001	2.4624567E-001	-1.622624244809263E-001	0	-1.5938334E-004	12	0	-3.9956420E-005	1.5175767E+003
2	0	0	1	0	4.313889891021972E+001	2.4348484E-001	2.4312362E-001	-1.682337836323191E-001	0	-1.6959236E-004	12	0	-4.0901607E-005	1.4451533E+003
2	0	0	1	0	4.320049890866358E+001	2.4040486E-001	2.4005912E-001	-1.743333997877019E-001	0	-1.8017198E-004	12	0	-4.1850322E-005	1.3770116E+003
2	0	0	1	0	4.326209890710743E+001	2.3732485E-001	2.3696870E-001	-1.804983516775609E-001	0	-1.9113097E-004	12	0	-4.2772459E-005	1.3128579E+003
2	0	0	1	0	4.332369890555128E+001	2.3424482E-001	2.3388803E-001	-1.865506950908018E-001	0	-2.0246669E-004	12	0	-4.3631975E-005	1.2537505E+003
2	0	0	1	0	4.338509890400019E+001	2.3117484E-001	2.3082489E-001	-1.923598447926338E-001	0	-2.1412878E-004	12	0	-4.4401440E-005	1.1999640E+003
2	0	0	1	0	4.344669890244404E+001	2.2809482E-001	2.2774100E-001	-1.982086405214711E-001	0	-2.2618864E-004	12	0	-4.5140234E-005	1.1489963E+003
2	0	0	1	0	4.350829890088789E+001	2.2501479E-001	2.2465521E-001	-2.037752093432816E-001	0	-2.3859976E-004	12	0	-4.5779161E-005	1.1024658E+003
2	0	0	1	0	4.356989889933175E+001	2.2193481E-001	2.2155444E-001	-2.094670312604667E-001	0	-2.5135654E-004	12	0	-4.6408353E-005	1.0577056E+003
2	0	0	1	0	4.363129889778065E+001	2.1886481E-001	2.1852183E-001	-2.150352641758881E-001	0	-2.6441892E-004	12	0	-4.6989899E-005	1.0162139E+003
2	0	0	1	0	4.369289889622451E+001	2.1578480E-001	2.1542385E-001	-2.204656746716859E-001	0	-2.7786149E-004	12	0	-4.7493566E-005	9.7713104E+002
2	0	0	1	0	4.375449889466836E+001	2.1270478E-001	2.1233116E-001	-2.257726645241860E-001	0	-2.9163493E-004	12	0	-4.7938571E-005	9.4046442E+002
2	0	0	1	0	4.381609889311221E+001	2.0962480E-001	2.0930231E-001	-2.310844863507642E-001	0	-3.0573551E-004	12	0	-4.8366517E-005	9.0573932E+002
2	0	0	1	0	4.387769889155607E+001	2.0654479E-001	2.0620464E-001	-2.358686394001652E-001	0	-3.2014630E-004	12	0	-4.8637208E-005	8.7423505E+002
2	0	0	1	0	4.393909889000497E+001	2.0347477E-001	2.0312239E-001	-2.409340636219661E-001	0	-3.3481265E-004	12	0	-4.8939102E-005	8.4306213E+002
2	0	0	1	0	4.400069888844882E+001	2.0039478E-001	2.0001721E-001	-2.457999376647368E-001	0	-3.4983331E-004	12	0	-4.9164220E-005	8.1373987E+002
2	0	0	1	0	4.406229888689268E+001	1.9731478E-001	1.9697285E-001	-2.507475234068597E-001	0	-3.6515517E-004	12	0	-4.9390452E-005	7.8554254E+002
2	0	0	1	0	4.412389888533653E+001	1.9423588E-001	1.9388494E-001	-2.554346396355802E-001	0	-3.8077391E-004	12	0	-4.9524930E-005	7.5903931E+002
2	0	0	1	0	4.418539888378291E+001	1.9116031E-001	1.9077246E-001	-2.599495967254919E-001	0	-3.9664938E-004	12	0	-4.9591225E-005	7.3388251E+002
2	0	0	1	0	4.424689888222929E+001	1.8808585E-001	1.8769759E-001	-2.640928395848170E-001	0	-4.1279136E-004	12	0	-4.9569589E-005	7.1072577E+002
2	0	0	1	0	4.430849888067314E+001	1.8500586E-001	1.8462855E-001	-2.682020893305395E-001	0	-4.2921313E-004	12	0	-4.9517763E-005	6.8839337E+002
2	0	0	1	0	4.437009887911699E+001	1.8192585E-001	1.8153861E-001	-2.723723069204468E-001	0	-4.4588960E-004	12	0	-4.9446091E-005	6.6650909E+002
2	0	0	1	0	4.443169887756085E+001	1.7884587E-001	1.7845871E-001	-2.764871173644416E-001	0	-4.6282116E-004	12	0	-4.9341532E-005	6.4545032E+002
2	0	0	1	0	4.449309887600975E+001	1.7577584E-001	1.7539425E-001	-2.804746580890223E-001	0	-4.7994670E-004	12	0	-4.9193644E-005	6.2534796E+002
2	0	0	1	0	4.455469887445361E+001	1.7269585E-001	1.7234999E-001	-2.846076357963057E-001	0	-4.9737771E-004	12	0	-4.9052123E-005	6.0557050E+002
2	0	0	1	0	4.461629887289746E+001	1.6961582E-001	1.6922189E-001	-2.883736597467585E-001	0	-5.1505252E-004	12	0	-4.8799138E-005	5.8681464E+002
2	0	0	1	0	4.467789887134131E+001	1.6653581E-001	1.6616489E-001	-2.916217971857962E-001	0	-5.3294160E-004	12	0	-4.8457303E-005	5.6979584E+002
2	0	0	1	0	4.473949886978517E+001	1.6345583E-001	1.6313453E-001	-2.950851776867847E-001	0	-5.5103737E-004	12	0	-4.8138583E-005	5.5283881E+002
2	0	0	1	0	4.480089886823407E+001	1.6038582E-001	1.5998206E-001	-2.985118634042334E-001	0	-5.6928524E-004	12	0	-4.7756541E-005	5.3593201E+002
2	0	0	1	0	4.486249886667792E+001	1.5730582E-001	1.5692075E-001	-3.019083275995893E-001	0	-5.8780389E-004	12	0	-4.7375681E-005	5.1976288E+002
2	0	0	1	0	4.492409886512178E+001	1.5422580E-001	1.5383179E-001	-3.046743019199147E-001	0	-6.0651038E-004	12	0	-4.6868594E-005	5.0490570E+002
2	0	0	1	0	4.498569886356563E+001	1.5114579E-001	1.5076283E-001	-3.082259145141535E-001	0	-6.2541192E-004	12	0	-4.6469009E-005	4.8913092E+002
2	0	0	1	0	4.504709886201454E+001	1.4807579E-001	1.4772114E-001	-3.110926720536440E-001	0	-6.4444897E-004	12	0	-4.5954963E-005	4.7484610E+002
2	0	0	1	0	4.510869886045839E+001	1.4499578E-001	1.4463820E-001	-3.134080593217243E-001	0	-6.6370616E-004	12	0	-4.5330777E-005	4.6150119E+002
2	0	0	1	0	4.517029885890224E+001	1.4191578E-001	1.4156266E-001	-3.167638325734590E-001	0	-6.8313809E-004	12	0	-4.4841931E-005	4.4690283E+002
2	0	0	1	0	4.523189885734610E+001	1.3883577E-001	1.3842383E-001	-3.190927844755542E-001	0	-7.0274656E-004	12	0	-4.4170047E-005	4.3380432E+002
2	0	0	1	0	4.529349885578995E+001	1.3575578E-001	1.3538337E-001	-3.214602844857195E-001	0	-7.2249724E-004	12	0	-4.3520376E-005	4.2115115E+002
2	0	0	1	0	4.535489885423885E+001	1.3268577E-001	1.3234442E-001	-3.244921814460406E-001	0	-7.4235006E-004	12	0	-4.2944732E-005	4.0785089E+002
2	0	0	1	0	4.541649885268271E+001	1.2960576E-001	1.2925836E-001	-3.266008063669856E-001	0	-7.6242647E-004	12	0	-4.2215885E-005	3.9576868E+002
2	0	0	1	0	4.547809885112656E+001	1.2652574E-001	1.2617691E-001	-3.287496526384088E-001	0	-7.8263180E-004	12	0	-4.1480616E-005	3.8380850E+002
2	0	0	1	0	4.553969884957041E+001	1.2344575E-001	1.2308988E-001	-3.310694475600444E-001	0	-8.0297544E-004	12	0	-4.0751300E-005	3.7179474E+002
2	0	0	1	0	4.560109884801932E+001	1.2037574E-001	1.1999689E-001	-3.332072382907789E-001	0	-8.2338956E-004	12	0	-3.9983832E-005	3.6012689E+002
2	0	0	1	0	4.566269884646317E+001	1.1729574E-001	1.1686873E-001	-3.354240409014833E-001	0	-8.4400387E-004	12	0	-3.9200582E-005	3.4842084E+002
2	0	0	1	0	4.572429884490703E+001	1.1421573E-001	1.1382093E-001	-3.377078484344854E-001	0	-8.6475635E-004	12	0	-3.8438222E-005	3.3703964E+002
2	0	0	1	0	4.578589884335088E+001	1.1113571E-001	1.1074436E-001	-3.398573805132177E-001	0	-8.8564714E-004	12	0	-3.7637288E-005	3.2585541E+002
2	0	0	1	0	4.584749884179473E+001	1.0805571E-001	1.0764925E-001	-3.418202420821175E-001	0	-9.0666208E-004	12	0	-3.6796693E-005	3.1492941E+002
2	0	0	1	0	4.590889884024364E+001	1.0498571E-001	1.0456976E-001	-3.434372680826261E-001	0	-9.2772010E-004	12	0	-3.5913155E-005	3.0447995E+002
2	0	0	1	0	4.597049883868749E+001	1.0190571E-001	1.0151908E-001	-3.452402442302427E-001	0	-9.4895001E-004	12	0	-3.5048470E-005	2.9405344E+002
2	0	0	1	0	4.603209883713134E+001	9.8825708E-002	9.8473176E-002	-3.472645113700956E-001	0	-9.7029761E-004	12	0	-3.4196240E-005	2.8356821E+002
2	0	0	1	0	4.609369883557520E+001	9.5745698E-002	9.5366366E-002	-3.491392057089309E-001	0	-9.9176692E-004	12	0	-3.3296139E-005	2.7314713E+002
2	0	0	1	0	4.615509883402410E+001	9.2675693E-002	9.2276819E-002	-3.508105119048919E-001	0	-1.0132736E-003	12	0	-3.2371678E-005	2.6303891E+002
2	0	0	1	0	4.621669883246796E+001	8.9595690E-002	8.9232087E-002	-3.519475077216612E-001	0	-1.0349370E-003	12	0	-3.1405012E-005	2.5353806E+002
2	0	0	1	0	4.627829883091181E+001	8.6515695E-002	8.6136349E-002	-3.533277063517959E-001	0	-1.0566761E-003	12	0	-3.0434359E-005	2.4378600E+002
2	0	0	1	0	4.633989882935566E+001	8.3435677E-002	8.3077803E-002	-3.550573125724981E-001	0	-1.0785130E-003	12	0	-2.9497382E-005	2.3398421E+002
2	0	0	1	0	4.640149882779951E+001	8.0355674E-002	7.9968832E-002	-3.563370154834664E-001	0	-1.1004400E-003	12	0	-2.8495855E-005	2.2441910E+002
2	0	0	1	0	4.646289882624842E+001	7.7285662E-002	7.6863274E-002	-3.579692999544930E-001	0	-1.1223889E-003	12	0	-2.7514692E-005	2.1472029E+002
2	0	0	1	0	4.652449882469227E+001	7.4205659E-002	7.3787227E-002	-3.592588608071672E-001	0	-1.1444947E-003	12	0	-2.6508715E-005	2.0538736E+002
2	0	0	1	0	4.658609882313613E+001	7.1125656E-002	7.0722111E-002	-3.607340698577910E-001	0	-1.1666877E-003	12	0	-2.5511874E-005	1.9605054E+002
2	0	0	1	0	4.664769882157998E+001	6.8045653E-002	6.7610763E-002	-3.621480424972807E-001	0	-1.1889687E-003	12	0	-2.4485105E-005	1.8669371E+002
2	0	0	1	0	4.670909882002888E+001	6.4975649E-002	6.4510293E-002	-3.635232308945771E-001	0	-1.2112636E-003	12	0	-2.3450990E-005	1.7745851E+002
2	0	0	1	0	4.677069881847274E+001	6.1895642E-002	6.1429609E-002	-3.647396693997189E-001	0	-1.2337096E-003	12	0	-2.2405815E-005	1.6842043E+002
2	0	0	1	0	4.683229881691659E+001	5.8815636E-002	5.8377497E-002	-3.660059735472263E-001	0	-1.2562328E-003	12	0	-2.1366513E-005	1.5949875E+002
2	0	0	1	0	4.689389881536044E+001	5.5735629E-002	5.5330627E-002	-3.670231838974942E-001	0	-1.2788248E-003	12	0	-2.0307623E-005	1.5075513E+002
2	0	0	1	0	4.695549881380430E+001	5.2655622E-002	5.2273735E-002	-3.676494685444673E-001	0	-1.3014675E-003	12	0	-1.9218411E-005	1.4218362E+002
2	0	0	1	0	4.701689881225320E+001	4.9585618E-002	4.9186222E-002	-3.695247463431741E-001	0	-1.3241137E-003	12	0	-1.8175526E-005	1.3310670E+002
2	0	0	1	0	4.707849881069706E+001	4.6505611E-002	4.6102535E-002	-3.706296133779476E-001	0	-1.3469276E-003	12	0	-1.7086964E-005	1.2438978E+002
2	0	0	1	0	4.714009880914091E+001	4.3425605E-002	4.2991810E-002	-3.713330028127456E-001	0	-1.3697931E-003	12	0	-1.5964277E-005	1.1577697E+002
2	0	0	1	0	4.720169880758476E+001	4.0345598E-002	3.9946660E-002	-3.728586018998081E-001	0	-1.3927286E-003	12	0	-1.4894456E-005	1.0713622E+002
2	0	0	1	0	4.726309880603367E+001	3.7275594E-002	3.6846992E-002	-3.732625540779457E-001	0	-1.4156492E-003	12	0	-1.3753603E-005	9.8716011E+001
2	0	0	1	0	4.732469880447752E+001	3.4195591E-002	3.3743396E-002	-3.735657584262846E-001	0	-1.4386653E-003	12	0	-1.2605377E-005	9.0327866E+001
2	0	0	1	0	4.738629880292137E+001	3.1115586E-002	3.0667799E-002	-3.747864353020445E-001	0	-1.4617274E-003	12	0	-1.1493875E-005	8.1827400E+001
2	0	0	1	0	4.744789880136523E+001	2.8035579E-002	2.7567098E-002	-3.756647734641032E-001	0	-1.4848553E-003	12	0	-1.0355988E-005	7.3382172E+001
2	0	0	1	0	4.750949879980908E+001	2.4955573E-002	2.4500767E-002	-3.766176622150246E-001	0	-1.5080387E-003	12	0	-9.2274213E-006	6.5054749E+001
2	0	0	1	0	4.757089879825799E+001	2.1885568E-002	2.1461304E-002	-3.773546465548154E-001	0	-1.5311990E-003	12	0	-8.0985228E-006	5.6873035E+001
2	0	0	1	0	4.763249879670184E+001	1.8805563E-002	1.8355330E-002	-3.784232906609750E-001	0	-1.5544905E-003	12	0	-6.9460843E-006	4.8504761E+001
2	0	0	1	0	4.769409879514569E+001	1.5725559E-002	1.5306289E-002	-3.789383394529358E-001	0	-1.5778325E-003	12	0	-5.8001397E-006	4.0392559E+001
2	0	0	1	0	4.775569879358954E+001	1.2645553E-002	1.2226872E-002	-3.795306647243493E-001	0	-1.6012032E-003	12	0	-4.6404730E-006	3.2215767E+001
2	0	0	1	0	4.781709879203845E+001	9.5755467E-003	9.1375355E-003	-3.805421518933922E-001	0	-1.6245513E-003	12	0	-3.4772174E-006	2.4011889E+001
2	0	0	1	0	4.787869879048230E+001	6.4955414E-003	6.0732388E-003	-3.810256290042187E-001	0	-1.6480205E-003	12	0	-2.3140597E-006	1.5939187E+001
2	0	0	1	0	4.794029878892616E+001	3.4155366E-003	2.9529033E-003	-3.817433558416621E-001	0	-1.6715268E-003	12	0	-1.1272512E-006	7.7353101E+000
2	0	0	1	0	4.800189878737001E+001	3.3553093E-004	-2.1744227E-004	-3.826939277817134E-001	0	-1.6950837E-003	12	0	8.3213834E-008	5.6818843E-001
2	0	0	1	0	4.806349878581386E+001	-2.7444754E-003	-3.4310140E-003	-3.831121400360509E-001	0	-1.7186825E-003	12	0	1.3144631E-006	8.9556389E+000
2	0	0	1	0	4.812489878426277E+001	-5.8144820E-003	-6.4934194E-003	-3.839154978259538E-001	0	-1.7422419E-003	12	0	2.4929243E-006	1.6913668E+001
2	0	0	1	0	4.818649878270662E+001	-8.8944901E-003	-9.5705651E-003	-3.853789636157896E-001	0	-1.7659493E-003	12	0	3.6882946E-006	2.4834166E+001
2	0	0	1	0	4.824809878115047E+001	-1.1974497E-002	-1.2643063E-002	-3.849585431886160E-001	0	-1.7896858E-003	12	0	4.8670549E-006	3.2842659E+001
2	0	0	1	0	4.830969877959433E+001	-1.5054504E-002	-1.5746763E-002	-3.852879569759313E-001	0	-1.8134188E-003	12	0	6.0670382E-006	4.0870113E+001
2	0	0	1	0	4.837109877804323E+001	-1.8124511E-002	-1.8800350E-002	-3.856759131594512E-001	0	-1.8371000E-003	12	0	7.2508419E-006	4.8746498E+001
2	0	0	1	0	4.843269877648709E+001	-2.1204518E-002	-2.1896163E-002	-3.866136654391713E-001	0	-1.8608980E-003	12	0	8.4653557E-006	5.6635773E+001
2	0	0	1	0	4.849429877493094E+001	-2.4284527E-002	-2.4927985E-002	-3.866376742257600E-001	0	-1.8847246E-003	12	0	9.6380982E-006	6.4473763E+001
2	0	0	1	0	4.855589877337479E+001	-2.7364532E-002	-2.8057206E-002	-3.876072133513588E-001	0	-1.9085814E-003	12	0	1.0875176E-005	7.2385666E+001
2	0	0	1	0	4.861749877181865E+001	-3.0444536E-002	-3.1120056E-002	-3.886682625086344E-001	0	-1.9325035E-003	12	0	1.2095378E-005	8.0068428E+001
2	0	0	1	0	4.867889877026755E+001	-3.3514544E-002	-3.4183841E-002	-3.884998114753655E-001	0	-1.9563739E-003	12	0	1.3280416E-005	8.7989342E+001
2	0	0	1	0	4.874049876871140E+001	-3.6594551E-002	-3.7272148E-002	-3.890338141429508E-001	0	-1.9803317E-003	12	0	1.4500126E-005	9.5806961E+001
2	0	0	1	0	4.880209876715526E+001	-3.9674558E-002	-4.0387906E-002	-3.900294253184757E-001	0	-2.0043363E-003	12	0	1.5752472E-005	1.0355092E+002
2	0	0	1	0	4.886369876559911E+001	-4.2754564E-002	-4.3446518E-002	-3.901336250581116E-001	0	-2.0283773E-003	12	0	1.6949947E-005	1.1136317E+002
2	0	0	1	0	4.892509876404802E+001	-4.5824576E-002	-4.6530761E-002	-3.899919129121008E-001	0	-2.0523355E-003	12	0	1.8146620E-005	1.1931212E+002
2	0	0	1	0	4.898669876249187E+001	-4.8904579E-002	-4.9616721E-002	-3.904193404544505E-001	0	-2.0763825E-003	12	0	1.9371328E-005	1.2708572E+002
2	0	0	1	0	4.904829876093572E+001	-5.1984586E-002	-5.2677132E-002	-3.909888679768452E-001	0	-2.1004602E-003	12	0	2.0596171E-005	1.3472797E+002
2	0	0	1	0	4.910989875937958E+001	-5.5064589E-002	-5.5779073E-002	-3.914355284598590E-001	0	-2.1245682E-003	12	0	2.1833912E-005	1.4249875E+002
2	0	0	1	0	4.917149875782343E+001	-5.8144603E-002	-5.8887221E-002	-3.919615870240145E-001	0	-2.1487060E-003	12	0	2.3081529E-005	1.5023723E+002
2	0	0	1	0	4.923289875627233E+001	-6.1214611E-002	-6.1896477E-002	-3.932702306586298E-001	0	-2.1728228E-003	12	0	2.4342042E-005	1.5738918E+002
2	0	0	1	0	4.929449875471619E+001	-6.4294614E-002	-6.4978786E-002	-3.939215972545060E-001	0	-2.1970798E-003	12	0	2.5596548E-005	1.6495360E+002
2	0	0	1	0	4.935609875316004E+001	-6.7374624E-002	-6.8058893E-002	-3.936689212599990E-001	0	-2.2213473E-003	12	0	2.6792672E-005	1.7288358E+002
2	0	0	1	0	4.941769875160389E+001	-7.0454627E-002	-7.1147785E-002	-3.930073396468463E-001	0	-2.2455831E-003	12	0	2.7961602E-005	1.8103424E+002
2	0	0	1	0	4.947909875005280E+001	-7.3524639E-002	-7.4218355E-002	-3.936167321511315E-001	0	-2.2697409E-003	12	0	2.9213586E-005	1.8855489E+002
2	0	0	1	0	4.954069874849665E+001	-7.6604642E-002	-7.7295750E-002	-3.941071455458971E-001	0	-2.2940123E-003	12	0	3.0462808E-005	1.9612877E+002
2	0	0	1	0	4.960229874694051E+001	-7.9684652E-002	-8.0413289E-002	-3.945891958139276E-001	0	-2.3183140E-003	12	0	3.1730215E-005	2.0378989E+002
2	0	0	1	0	4.966389874538436E+001	-8.2764655E-002	-8.3475247E-002	-3.949133208915221E-001	0	-2.3426383E-003	12	0	3.2965487E-005	2.1137613E+002
2	0	0	1	0	4.972549874382821E+001	-8.5844666E-002	-8.6603366E-002	-3.958941118327064E-001	0	-2.3670052E-003	12	0	3.4285764E-005	2.1875386E+002
2	0	0	1	0	4.978689874227712E+001	-8.8914670E-002	-8.9673005E-002	-3.961188227038792E-001	0	-2.3913272E-003	12	0	3.5521167E-005	2.2637906E+002
2	0	0	1	0	4.984849874072097E+001	-9.1994673E-002	-9.2697427E-002	-3.963198036761066E-001	0	-2.4157441E-003	12	0	3.6737827E-005	2.3389552E+002
2	0	0	1	0	4.991009873916482E+001	-9.5074676E-002	-9.5801160E-002	-3.957049499041854E-001	0	-2.4401394E-003	12	0	3.7908994E-005	2.4210251E+002
2	0	0	1	0	4.997169873760868E+001	-9.8154686E-002	-9.8925628E-002	-3.961727161907600E-001	0	-2.4645398E-003	12	0	3.9191636E-005	2.4970328E+002
2	0	0	1	0	5.000539873675734E+001	-9.9844120E-002	-1.0047296E-001	-3.962287540946687E-001	0	-2.4778957E-003	12	0	3.9810278E-005	2.5357312E+002
2	0	0	1	0	5.000579873674724E+001	-1.0015190E-001	-1.0091183E-001	-3.973805755376816E-001	0	-2.4780545E-003	12	0	4.0100400E-005	2.5394252E+002