mode	ox/red	error	control changes		time/s	control/V	Ewe/V	<I>/mA		(Q-Qo)/C	I Range		Pwe/W	Rwe/Ohm	
3	0	0	1	0	0.000000000000000E+000	0.0000000E+000	4.4881308E-001	0.000000000000000E+000	0	0.0000000E+000	14	0	0.0000000E+000	0.0000000E+000
3	0	0	0	0	2.999979924214131E+001	9.0028149E-001	4.4875583E-001	0.000000000000000E+000	0	0.0000000E+000	14	0	0.0000000E+000	0.0000000E+000
2	1	0	1	0	3.003059924136323E+001	8.9889687E-001	8.9885861E-001	1.069414274146160E-002	0	7.2174186E-007	13	0	9.6125223E-006	8.4051484E+004
2	1	0	1	0	3.006449924050685E+001	8.9720500E-001	8.9717484E-001	6.988216181602787E-003	0	9.7180316E-007	13	0	6.2696517E-006	1.2838395E+005
2	1	0	1	0	3.012609923895070E+001	8.9412487E-001	8.9411569E-001	4.528787022205518E-003	0	1.3155583E-006	13	0	4.0492596E-006	1.9742939E+005
2	1	0	1	0	3.018769923739455E+001	8.9104491E-001	8.9099330E-001	3.607035239753101E-003	0	1.5606174E-006	13	0	3.2138441E-006	2.4701541E+005
2	1	0	1	0	3.026449923545442E+001	8.8720447E-001	8.8719517E-001	2.980210731464504E-003	0	1.8055612E-006	13	0	2.6440287E-006	2.9769544E+005
2	1	0	1	0	3.034149923350924E+001	8.8335490E-001	8.8337713E-001	2.545199532629834E-003	0	2.0194796E-006	14	0	2.2483712E-006	3.4707578E+005
2	1	0	1	0	3.040309923195309E+001	8.8027483E-001	8.8021618E-001	2.317337704592949E-003	0	2.1676640E-006	14	0	2.0397581E-006	3.7983941E+005
2	1	0	1	0	3.046469923039695E+001	8.7719488E-001	8.7716556E-001	2.140154192440756E-003	0	2.3034493E-006	14	0	1.8772696E-006	4.0986091E+005
2	1	0	1	0	3.052609922884585E+001	8.7412483E-001	8.7411785E-001	1.990556431802484E-003	0	2.4288365E-006	14	0	1.7399809E-006	4.3913241E+005
2	1	0	1	0	3.058769922728970E+001	8.7104481E-001	8.7103522E-001	1.864731513430803E-003	0	2.5463862E-006	14	0	1.6242468E-006	4.6711025E+005
2	1	0	1	0	3.064929922573356E+001	8.6796486E-001	8.6797899E-001	1.758964284853067E-003	0	2.6568068E-006	14	0	1.5267441E-006	4.9346028E+005
2	1	0	1	0	3.071089922417741E+001	8.6488485E-001	8.6487281E-001	1.661341419365171E-003	0	2.7610724E-006	14	0	1.4368491E-006	5.2058703E+005
2	1	0	1	0	3.077249922262126E+001	8.6180478E-001	8.6173797E-001	1.578774961579342E-003	0	2.8599804E-006	14	0	1.3604903E-006	5.4582700E+005
2	1	0	1	0	3.083389922107017E+001	8.5873485E-001	8.5866874E-001	1.507669235138838E-003	0	2.9537721E-006	14	0	1.2945884E-006	5.6953388E+005
2	1	0	1	0	3.089549921951402E+001	8.5565490E-001	8.5563463E-001	1.443594008365869E-003	0	3.0438123E-006	14	0	1.2351891E-006	5.9271138E+005
2	1	0	1	0	3.095709921795788E+001	8.5257477E-001	8.5252100E-001	1.383489339533135E-003	0	3.1300119E-006	14	0	1.1794538E-006	6.1621075E+005
2	1	0	1	0	3.101869921640173E+001	8.4949481E-001	8.4946686E-001	1.330072105736595E-003	0	3.2127894E-006	14	0	1.1298522E-006	6.3866225E+005
2	1	0	1	0	3.108009921485063E+001	8.4642476E-001	8.4645057E-001	1.282319640555031E-003	0	3.2921146E-006	14	0	1.0854202E-006	6.6009325E+005
2	1	0	1	0	3.114169921329449E+001	8.4334481E-001	8.4337854E-001	1.239034644393421E-003	0	3.3689116E-006	14	0	1.0449752E-006	6.8067388E+005
2	1	0	1	0	3.120329921173834E+001	8.4026486E-001	8.4021813E-001	1.197224544653645E-003	0	3.4430557E-006	14	0	1.0059298E-006	7.0180494E+005
2	1	0	1	0	3.126489921018219E+001	8.3718479E-001	8.3721244E-001	1.160690129712670E-003	0	3.5147966E-006	14	0	9.7174427E-007	7.2130575E+005
2	1	0	1	0	3.132649920862605E+001	8.3410484E-001	8.3409590E-001	1.123526889247686E-003	0	3.5843361E-006	14	0	9.3712919E-007	7.4239069E+005
2	1	0	1	0	3.138789920707495E+001	8.3103484E-001	8.3103490E-001	1.090694192183210E-003	0	3.6514853E-006	14	0	9.0640492E-007	7.6193206E+005
2	1	0	1	0	3.144949920551881E+001	8.2795477E-001	8.2798719E-001	1.057552841960688E-003	0	3.7169546E-006	14	0	8.7564018E-007	7.8292750E+005
2	1	0	1	0	3.151109920396266E+001	8.2487476E-001	8.2493150E-001	1.029105295967902E-003	0	3.7805419E-006	14	0	8.4894140E-007	8.0160069E+005
2	1	0	1	0	3.157269920240651E+001	8.2179475E-001	8.2179284E-001	1.000345322406120E-003	0	3.8424550E-006	14	0	8.2207663E-007	8.2150913E+005
2	1	0	1	0	3.163409920085542E+001	8.1872475E-001	8.1874669E-001	9.773852362643561E-004	0	3.9025181E-006	14	0	8.0023091E-007	8.3769088E+005
2	1	0	1	0	3.169569919929927E+001	8.1564480E-001	8.1562269E-001	9.552820357753115E-004	0	3.9614829E-006	14	0	7.7914967E-007	8.5380300E+005
2	1	0	1	0	3.175729919774312E+001	8.1256479E-001	8.1257701E-001	9.324221599685979E-004	0	4.0189761E-006	14	0	7.5766479E-007	8.7146900E+005
2	1	0	1	0	3.181889919618698E+001	8.0948466E-001	8.0948991E-001	9.143290760081852E-004	0	4.0752229E-006	14	0	7.4014014E-007	8.8533763E+005
2	1	0	1	0	3.188049919463083E+001	8.0640477E-001	8.0640846E-001	8.959063426276894E-004	0	4.1303351E-006	14	0	7.2246644E-007	9.0010356E+005
2	1	0	1	0	3.194189919307973E+001	8.0333471E-001	8.0339748E-001	8.797044503341244E-004	0	4.1841145E-006	14	0	7.0675236E-007	9.1325838E+005
2	1	0	1	0	3.200349919152359E+001	8.0025470E-001	8.0028337E-001	8.594690688533474E-004	0	4.2369970E-006	14	0	6.8781878E-007	9.3113694E+005
2	1	0	1	0	3.206509918996744E+001	7.9717475E-001	7.9721677E-001	8.450913280907794E-004	0	4.2888810E-006	14	0	6.7372099E-007	9.4334988E+005
2	1	0	1	0	3.212669918841129E+001	7.9409474E-001	7.9419518E-001	8.309105824202928E-004	0	4.3397963E-006	14	0	6.5990520E-007	9.5581306E+005
2	1	0	1	0	3.218809918686020E+001	7.9102474E-001	7.9112166E-001	8.174508365914705E-004	0	4.3896139E-006	14	0	6.4670309E-007	9.6779113E+005
2	1	0	1	0	3.224969918530405E+001	7.8794461E-001	7.8802848E-001	8.017302035849001E-004	0	4.4388044E-006	14	0	6.3178624E-007	9.8290981E+005
2	1	0	1	0	3.231129918374791E+001	7.8486466E-001	7.8493810E-001	7.906975389679726E-004	0	4.4871817E-006	14	0	6.2064862E-007	9.9271600E+005
2	1	0	1	0	3.237289918219176E+001	7.8178471E-001	7.8180897E-001	7.752608469580660E-004	0	4.5348015E-006	14	0	6.0610591E-007	1.0084464E+006
2	1	0	1	0	3.243449918063561E+001	7.7870470E-001	7.7875119E-001	7.668854793901171E-004	0	4.5817142E-006	14	0	5.9721299E-007	1.0154726E+006
2	1	0	1	0	3.249589917908452E+001	7.7563471E-001	7.7567202E-001	7.564876865220373E-004	0	4.6278346E-006	14	0	5.8678631E-007	1.0253598E+006
2	1	0	1	0	3.255749917752837E+001	7.7255470E-001	7.7259409E-001	7.451730869221041E-004	0	4.6734604E-006	14	0	5.7571634E-007	1.0367982E+006
2	1	0	1	0	3.261909917597222E+001	7.6947469E-001	7.6950783E-001	7.351904201843458E-004	0	4.7183444E-006	14	0	5.6573481E-007	1.0466783E+006
2	1	0	1	0	3.268069917441608E+001	7.6639462E-001	7.6644421E-001	7.273858942277670E-004	0	4.7626354E-006	14	0	5.5750070E-007	1.0536969E+006
2	1	0	1	0	3.274209917286498E+001	7.6332468E-001	7.6340926E-001	7.201751746229428E-004	0	4.8062520E-006	14	0	5.4978841E-007	1.0600328E+006
2	1	0	1	0	3.280369917130884E+001	7.6024461E-001	7.6034564E-001	7.124977625024825E-004	0	4.8495281E-006	14	0	5.4174455E-007	1.0671551E+006
2	1	0	1	0	3.286529916975269E+001	7.5716466E-001	7.5725591E-001	7.037923088576911E-004	0	4.8923243E-006	14	0	5.3295088E-007	1.0759650E+006
2	1	0	1	0	3.292689916819654E+001	7.5408471E-001	7.5420201E-001	6.947371981758264E-004	0	4.9345786E-006	14	0	5.2397218E-007	1.0855933E+006
2	1	0	1	0	3.298849916664039E+001	7.5100464E-001	7.5106049E-001	6.878227043547961E-004	0	4.9764240E-006	14	0	5.1659646E-007	1.0919391E+006
2	1	0	1	0	3.304989916508930E+001	7.4793464E-001	7.4801672E-001	6.779315053003915E-004	0	5.0176104E-006	14	0	5.0710412E-007	1.1033810E+006
2	1	0	1	0	3.311149916353315E+001	7.4485457E-001	7.4490404E-001	6.749128962953571E-004	0	5.0585913E-006	14	0	5.0274537E-007	1.1037040E+006
2	1	0	1	0	3.317309916197701E+001	7.4177456E-001	7.4179387E-001	6.685924276851971E-004	0	5.0992007E-006	14	0	4.9595775E-007	1.1094859E+006
2	1	0	1	0	3.323469916042086E+001	7.3869461E-001	7.3875219E-001	6.620325678981633E-004	0	5.1394545E-006	14	0	4.8907799E-007	1.1158850E+006
2	1	0	1	0	3.329609915886977E+001	7.3562461E-001	7.3563474E-001	6.576294711550714E-004	0	5.1791594E-006	14	0	4.8377507E-007	1.1186159E+006
2	1	0	1	0	3.335769915731362E+001	7.3254460E-001	7.3259723E-001	6.515143822679332E-004	0	5.2186897E-006	14	0	4.7729765E-007	1.1244529E+006
2	1	0	1	0	3.341929915575747E+001	7.2946459E-001	7.2950244E-001	6.485165552217783E-004	0	5.2578903E-006	14	0	4.7309442E-007	1.1248786E+006
2	1	0	1	0	3.348089915420132E+001	7.2638458E-001	7.2648418E-001	6.426121219924941E-004	0	5.2968244E-006	14	0	4.6684755E-007	1.1305174E+006
2	1	0	1	0	3.354249915264518E+001	7.2330457E-001	7.2336847E-001	6.379510022177836E-004	0	5.3353588E-006	14	0	4.6147363E-007	1.1338935E+006
2	1	0	1	0	3.360389915109408E+001	7.2023457E-001	7.2031289E-001	6.333389955243923E-004	0	5.3734257E-006	14	0	4.5620226E-007	1.1373260E+006
2	1	0	1	0	3.366549914953794E+001	7.1715456E-001	7.1725869E-001	6.276997723468625E-004	0	5.4113671E-006	14	0	4.5022313E-007	1.1426780E+006
2	1	0	1	0	3.372709914798179E+001	7.1407455E-001	7.1416646E-001	6.224570845550174E-004	0	5.4490270E-006	14	0	4.4453796E-007	1.1473345E+006
2	1	0	1	0	3.378869914642564E+001	7.1099460E-001	7.1107537E-001	6.185443479959069E-004	0	5.4863349E-006	14	0	4.3983164E-007	1.1495948E+006
2	1	0	1	0	3.385009914487455E+001	7.0792454E-001	7.0800126E-001	6.129612238118341E-004	0	5.5232194E-006	14	0	4.3397731E-007	1.1550506E+006
2	1	0	1	0	3.391169914331840E+001	7.0484459E-001	7.0486259E-001	6.111498530977158E-004	0	5.5599780E-006	14	0	4.3077668E-007	1.1533384E+006
2	1	0	1	0	3.397329914176225E+001	7.0176464E-001	7.0180243E-001	6.086608888861231E-004	0	5.5965902E-006	14	0	4.2715970E-007	1.1530270E+006
2	1	0	1	0	3.403489914020611E+001	6.9868451E-001	6.9873196E-001	6.038669976721483E-004	0	5.6329450E-006	14	0	4.2194117E-007	1.1570958E+006
2	1	0	1	0	3.409649913864996E+001	6.9560456E-001	6.9568956E-001	6.016951784745331E-004	0	5.6690315E-006	14	0	4.1859306E-007	1.1562160E+006
2	1	0	1	0	3.415789913709887E+001	6.9253457E-001	6.9256908E-001	5.958535566054886E-004	0	5.7047710E-006	14	0	4.1266975E-007	1.1623143E+006
2	1	0	1	0	3.421949913554272E+001	6.8945456E-001	6.8950397E-001	5.938551722114811E-004	0	5.7404454E-006	14	0	4.0946549E-007	1.1610641E+006
2	1	0	1	0	3.428109913398657E+001	6.8637455E-001	6.8649143E-001	5.875144093284209E-004	0	5.7758843E-006	14	0	4.0332361E-007	1.1684674E+006
2	1	0	1	0	3.434269913243043E+001	6.8329453E-001	6.8333542E-001	5.854117362072365E-004	0	5.8111341E-006	14	0	4.0003258E-007	1.1672733E+006
2	1	0	1	0	3.440419913087680E+001	6.8022013E-001	6.8028176E-001	5.824986883325931E-004	0	5.8461151E-006	14	0	3.9626323E-007	1.1678683E+006
2	1	0	1	0	3.446569912932318E+001	6.7714560E-001	6.7719805E-001	5.818431999645838E-004	0	5.8809801E-006	14	0	3.9402309E-007	1.1638841E+006
2	1	0	1	0	3.452729912776704E+001	6.7406559E-001	6.7409635E-001	5.768922469541211E-004	0	5.9157969E-006	14	0	3.8888095E-007	1.1684961E+006
2	1	0	1	0	3.458889912621089E+001	6.7098558E-001	6.7102432E-001	5.773687391451912E-004	0	5.9504468E-006	14	0	3.8742846E-007	1.1622110E+006
2	1	0	1	0	3.465049912465474E+001	6.6790563E-001	6.6795260E-001	5.745573016501093E-004	0	5.9849117E-006	14	0	3.8377704E-007	1.1625518E+006
2	1	0	1	0	3.471189912310365E+001	6.6483557E-001	6.6491848E-001	5.734454211469737E-004	0	6.0190437E-006	14	0	3.8129446E-007	1.1595149E+006
2	1	0	1	0	3.477349912154750E+001	6.6175562E-001	6.6183704E-001	5.699112575384352E-004	0	6.0531224E-006	14	0	3.7718837E-007	1.1612984E+006
2	1	0	1	0	3.483509911999136E+001	6.5867561E-001	6.5873277E-001	5.654327993787206E-004	0	6.0869934E-006	14	0	3.7246912E-007	1.1650063E+006
2	1	0	1	0	3.489669911843521E+001	6.5559554E-001	6.5565658E-001	5.627081524422154E-004	0	6.1206861E-006	14	0	3.6894329E-007	1.1651805E+006
2	1	0	1	0	3.495829911687906E+001	6.5251559E-001	6.5254605E-001	5.592758688336315E-004	0	6.1542637E-006	14	0	3.6495325E-007	1.1667695E+006
2	1	0	1	0	3.501969911532797E+001	6.4944553E-001	6.4951575E-001	5.563135495821132E-004	0	6.1876003E-006	14	0	3.6133440E-007	1.1675354E+006
2	1	0	1	0	3.508129911377182E+001	6.4636552E-001	6.4646399E-001	5.550890589516473E-004	0	6.2209247E-006	14	0	3.5884509E-007	1.1646131E+006
2	1	0	1	0	3.514289911221567E+001	6.4328551E-001	6.4328557E-001	5.532412521365264E-004	0	6.2540303E-006	14	0	3.5589213E-007	1.1627578E+006
2	1	0	1	0	3.520449911065953E+001	6.4020556E-001	6.4026237E-001	5.511906525587276E-004	0	6.2870354E-006	14	0	3.5290662E-007	1.1615988E+006
2	1	0	1	0	3.526589910910843E+001	6.3713557E-001	6.3719767E-001	5.511988745595664E-004	0	6.3198022E-006	14	0	3.5122264E-007	1.1560214E+006
2	1	0	1	0	3.532749910755228E+001	6.3405550E-001	6.3409740E-001	5.476637245001624E-004	0	6.3525563E-006	14	0	3.4727213E-007	1.1578225E+006
2	1	0	1	0	3.538909910599614E+001	6.3097554E-001	6.3105834E-001	5.449363904581938E-004	0	6.3851194E-006	14	0	3.4388665E-007	1.1580404E+006
2	1	0	1	0	3.545069910443999E+001	6.2789553E-001	6.2793744E-001	5.446479706637019E-004	0	6.4175474E-006	14	0	3.4200485E-007	1.1529235E+006
2	1	0	1	0	3.551229910288384E+001	6.2481552E-001	6.2488306E-001	5.412515118341649E-004	0	6.4498204E-006	14	0	3.3821891E-007	1.1545151E+006
2	1	0	1	0	3.557369910133275E+001	6.2174553E-001	6.2180811E-001	5.405190062581049E-004	0	6.4818314E-006	14	0	3.3609911E-007	1.1503909E+006
2	1	0	1	0	3.563529909977660E+001	6.1866552E-001	6.1872530E-001	5.380139923280962E-004	0	6.5138233E-006	14	0	3.3288288E-007	1.1500171E+006
2	1	0	1	0	3.569689909822046E+001	6.1558557E-001	6.1559719E-001	5.355848113960118E-004	0	6.5457084E-006	14	0	3.2970451E-007	1.1493925E+006
2	1	0	1	0	3.575849909666431E+001	6.1250550E-001	6.1254668E-001	5.312478718003551E-004	0	6.5774352E-006	14	0	3.2541413E-007	1.1530336E+006
2	1	0	1	0	3.581989909511321E+001	6.0943550E-001	6.0945189E-001	5.270539023348618E-004	0	6.6088814E-006	14	0	3.2121400E-007	1.1563369E+006
2	1	0	1	0	3.588149909355707E+001	6.0635549E-001	6.0637021E-001	5.234973931568382E-004	0	6.6402558E-006	14	0	3.1743323E-007	1.1583061E+006
2	1	0	1	0	3.594309909200092E+001	6.0327548E-001	6.0328686E-001	5.237439094157139E-004	0	6.6715534E-006	14	0	3.1596781E-007	1.1518738E+006
2	1	0	1	0	3.600469909044477E+001	6.0019553E-001	6.0022914E-001	5.208383617292542E-004	0	6.7027327E-006	14	0	3.1262238E-007	1.1524289E+006
2	1	0	1	0	3.606629908888863E+001	5.9711546E-001	5.9717244E-001	5.194450945795797E-004	0	6.7337223E-006	14	0	3.1019829E-007	1.1496354E+006
2	1	0	1	0	3.612769908733753E+001	5.9404552E-001	5.9404838E-001	5.174510336631503E-004	0	6.7644542E-006	14	0	3.0739096E-007	1.1480283E+006
2	1	0	1	0	3.618929908578139E+001	5.9096539E-001	5.9099847E-001	5.185070364100957E-004	0	6.7951923E-006	14	0	3.0643687E-007	1.1398080E+006
2	1	0	1	0	3.625089908422524E+001	5.8788544E-001	5.8787531E-001	5.160014855220120E-004	0	6.8257882E-006	14	0	3.0334454E-007	1.1392900E+006
2	1	0	1	0	3.631249908266909E+001	5.8480543E-001	5.8484232E-001	5.135447612063630E-004	0	6.8563045E-006	14	0	3.0034272E-007	1.1388341E+006
2	1	0	1	0	3.637389908111800E+001	5.8173543E-001	5.8177525E-001	5.088089532532328E-004	0	6.8864765E-006	14	0	2.9601244E-007	1.1434061E+006
2	1	0	1	0	3.643549907956185E+001	5.7865542E-001	5.7868940E-001	5.043800446825949E-004	0	6.9165521E-006	14	0	2.9187939E-007	1.1473281E+006
2	1	0	1	0	3.649709907800570E+001	5.7557547E-001	5.7557261E-001	4.996006662705758E-004	0	6.9463822E-006	14	0	2.8755645E-007	1.1520654E+006
2	1	0	1	0	3.655869907644956E+001	5.7249552E-001	5.7252920E-001	4.979205418411152E-004	0	6.9761063E-006	14	0	2.8507404E-007	1.1498405E+006
2	1	0	1	0	3.662029907489341E+001	5.6941539E-001	5.6943786E-001	4.961919191997753E-004	0	7.0056885E-006	14	0	2.8255047E-007	1.1476161E+006
2	1	0	1	0	3.668169907334232E+001	5.6634545E-001	5.6635219E-001	4.906215597880259E-004	0	7.0349060E-006	14	0	2.7786459E-007	1.1543565E+006
2	1	0	1	0	3.674329907178617E+001	5.6326544E-001	5.6329298E-001	4.887796788249988E-004	0	7.0640190E-006	14	0	2.7532616E-007	1.1524476E+006
2	1	0	1	0	3.680489907023002E+001	5.6018543E-001	5.6015182E-001	4.854827720242273E-004	0	7.0929505E-006	14	0	2.7194406E-007	1.1538038E+006
2	1	0	1	0	3.686649906867387E+001	5.5710542E-001	5.5712003E-001	4.841160407175913E-004	0	7.1216705E-006	14	0	2.6971074E-007	1.1507985E+006
2	1	0	1	0	3.692789906712278E+001	5.5403543E-001	5.5401021E-001	4.808466709504194E-004	0	7.1501199E-006	14	0	2.6639395E-007	1.1521556E+006
2	1	0	1	0	3.698949906556663E+001	5.5095541E-001	5.5093724E-001	4.757938645189117E-004	0	7.1784143E-006	14	0	2.6213255E-007	1.1579326E+006
2	1	0	1	0	3.705109906401049E+001	5.4787534E-001	5.4781836E-001	4.716394622837333E-004	0	7.2064468E-006	14	0	2.5837275E-007	1.1615194E+006
2	1	0	1	0	3.711269906245434E+001	5.4479539E-001	5.4471564E-001	4.694500970185700E-004	0	7.2342468E-006	14	0	2.5571680E-007	1.1603270E+006
2	1	0	1	0	3.717429906089819E+001	5.4171538E-001	5.4163247E-001	4.635202794920374E-004	0	7.2617604E-006	14	0	2.5105763E-007	1.1685195E+006
2	1	0	1	0	3.723569905934710E+001	5.3864539E-001	5.3862977E-001	4.615111200095201E-004	0	7.2889056E-006	14	0	2.4858363E-007	1.1671003E+006
2	1	0	1	0	3.729729905779095E+001	5.3556538E-001	5.3551006E-001	4.525337741869936E-004	0	7.3157835E-006	14	0	2.4233640E-007	1.1833594E+006
2	1	0	1	0	3.735889905623480E+001	5.3248537E-001	5.3247166E-001	4.500821985726896E-004	0	7.3423471E-006	14	0	2.3965600E-007	1.1830543E+006
2	1	0	1	0	3.742049905467866E+001	5.2940536E-001	5.2940041E-001	4.440627854703579E-004	0	7.3685637E-006	14	0	2.3508701E-007	1.1921746E+006
2	1	0	1	0	3.748189905312756E+001	5.2633530E-001	5.2637613E-001	4.349920934742617E-004	0	7.3943165E-006	14	0	2.2896945E-007	1.2100820E+006
2	1	0	1	0	3.754349905157142E+001	5.2325535E-001	5.2327663E-001	4.282034781172128E-004	0	7.4196414E-006	14	0	2.2406887E-007	1.2220280E+006
2	1	0	1	0	3.760509905001527E+001	5.2017534E-001	5.2016127E-001	4.200798142580172E-004	0	7.4445652E-006	14	0	2.1850926E-007	1.2382439E+006
2	1	0	1	0	3.766669904845912E+001	5.1709533E-001	5.1708072E-001	4.124549674904749E-004	0	7.4689979E-006	14	0	2.1327251E-007	1.2536659E+006
2	1	0	1	0	3.772829904690298E+001	5.1401538E-001	5.1403576E-001	4.041924336367344E-004	0	7.4929053E-006	14	0	2.0776936E-007	1.2717600E+006
2	1	0	1	0	3.778969904535188E+001	5.1094532E-001	5.1089430E-001	3.914927376512782E-004	0	7.5161302E-006	14	0	2.0001141E-007	1.3049905E+006
2	1	0	1	0	3.785129904379573E+001	5.0786537E-001	5.0781494E-001	3.804769208779132E-004	0	7.5387220E-006	14	0	1.9321186E-007	1.3346800E+006
2	1	0	1	0	3.791289904223959E+001	5.0478530E-001	5.0470871E-001	3.695186784591724E-004	0	7.5606813E-006	14	0	1.8649929E-007	1.3658544E+006
2	1	0	1	0	3.797449904068344E+001	5.0170529E-001	5.0160670E-001	3.575203426900396E-004	0	7.5818812E-006	14	0	1.7933461E-007	1.4030159E+006
2	1	0	1	0	3.803589903913235E+001	4.9863532E-001	4.9856794E-001	3.441842396160553E-004	0	7.6022120E-006	14	0	1.7159923E-007	1.4485496E+006
2	1	0	1	0	3.809749903757620E+001	4.9555534E-001	4.9549684E-001	3.292680137243829E-004	0	7.6217107E-006	14	0	1.6315126E-007	1.5048435E+006
2	1	0	1	0	3.815909903602005E+001	4.9247530E-001	4.9239185E-001	3.128628386236355E-004	0	7.6402548E-006	14	0	1.5405111E-007	1.5738266E+006
2	1	0	1	0	3.822069903446391E+001	4.8939526E-001	4.8933586E-001	2.936021329684336E-004	0	7.6576998E-006	14	0	1.4367005E-007	1.6666631E+006
2	1	0	1	0	3.828229903290776E+001	4.8631531E-001	4.8622942E-001	2.726201836939618E-004	0	7.6739225E-006	14	0	1.3255595E-007	1.7835415E+006
2	1	0	1	0	3.834369903135666E+001	4.8324522E-001	4.8315272E-001	2.498892141161750E-004	0	7.6886981E-006	14	0	1.2073465E-007	1.9334676E+006
2	1	0	1	0	3.840529902980052E+001	4.8016527E-001	4.8010260E-001	2.268334164934271E-004	0	7.7020777E-006	14	0	1.0890331E-007	2.1165428E+006
2	1	0	1	0	3.846689902824437E+001	4.7708529E-001	4.7703159E-001	2.012070138592919E-004	0	7.7138020E-006	14	0	9.5982102E-008	2.3708498E+006
2	1	0	1	0	3.852849902668822E+001	4.7400528E-001	4.7398070E-001	1.700954235123930E-004	0	7.7238019E-006	14	0	8.0621945E-008	2.7865575E+006
2	1	0	1	0	3.858989902513713E+001	4.7093529E-001	4.7082096E-001	1.385182911851869E-004	0	7.7317891E-006	14	0	6.5217314E-008	3.3989805E+006
2	1	0	1	0	3.865149902358098E+001	4.6785522E-001	4.6771637E-001	9.981698123545050E-005	0	7.7376262E-006	14	0	4.6686036E-008	4.6857395E+006
2	1	0	1	0	3.871309902202484E+001	4.6477526E-001	4.6468699E-001	6.059805541890116E-005	0	7.7410323E-006	14	0	2.8159128E-008	7.6683480E+006
2	1	0	1	0	3.877469902046869E+001	4.6169522E-001	4.6160865E-001	1.354126285088805E-005	0	7.7417426E-006	14	0	6.2507639E-009	3.4089040E+007
2	0	0	1	0	3.883629901891254E+001	4.5861521E-001	4.5852375E-001	-3.828255752187518E-005	0	7.7394725E-006	14	0	-1.7553463E-008	1.1977354E+007
2	1	0	1	0	3.889769901736145E+001	4.5554522E-001	4.5547661E-001	-9.344668132525431E-005	0	7.7339082E-006	14	0	-4.2562778E-008	4.8741870E+006
2	0	0	1	0	3.895929901580530E+001	4.5246524E-001	4.5234922E-001	-1.546166502003421E-004	0	7.7247360E-006	14	0	-6.9940718E-008	2.9256178E+006
2	0	0	1	0	3.902089901424915E+001	4.4938523E-001	4.4934714E-001	-2.206258550454553E-004	0	7.7115283E-006	14	0	-9.9137594E-008	2.0366930E+006
2	0	0	1	0	3.908249901269301E+001	4.4630519E-001	4.4619375E-001	-2.993700608695002E-004	0	7.6938550E-006	14	0	-1.3357705E-007	1.4904421E+006
2	0	0	1	0	3.914389901114191E+001	4.4323522E-001	4.4313574E-001	-3.814586505936166E-004	0	7.6713050E-006	14	0	-1.6903796E-007	1.1616875E+006
2	0	0	1	0	3.920549900958576E+001	4.4015518E-001	4.4006091E-001	-4.746752140945428E-004	0	7.6432098E-006	14	0	-2.0888601E-007	9.2707794E+005
2	0	0	1	0	3.926709900802962E+001	4.3707520E-001	4.3691996E-001	-5.778520072014961E-004	0	7.6090423E-006	14	0	-2.5247508E-007	7.5611050E+005
2	0	0	1	0	3.932869900647347E+001	4.3399522E-001	4.3386614E-001	-6.904749198333371E-004	0	7.5680778E-006	14	0	-2.9957368E-007	6.2835900E+005
2	0	0	1	0	3.939029900491732E+001	4.3091515E-001	4.3077749E-001	-8.155060493592759E-004	0	7.5196963E-006	14	0	-3.5130165E-007	5.2823338E+005
2	0	0	1	0	3.945169900336623E+001	4.2784515E-001	4.2767125E-001	-9.555985046760928E-004	0	7.4632203E-006	14	0	-4.0868201E-007	4.4754281E+005
2	0	0	1	0	3.951329900181008E+001	4.2476514E-001	4.2462555E-001	-1.106806177906112E-003	0	7.3974879E-006	14	0	-4.6997818E-007	3.8364941E+005
2	0	0	1	0	3.957489900025394E+001	4.2168519E-001	4.2149535E-001	-1.277347109809444E-003	0	7.3217279E-006	14	0	-5.3839585E-007	3.2997716E+005
2	0	0	1	0	3.963649899869779E+001	4.1860515E-001	4.1840699E-001	-1.467195050462895E-003	0	7.2347812E-006	14	0	-6.1388465E-007	2.8517475E+005
2	0	0	1	0	3.969789899714669E+001	4.1553515E-001	4.1535664E-001	-1.673881548872421E-003	0	7.1357849E-006	14	0	-6.9525782E-007	2.4813980E+005
2	0	0	1	0	3.975949899559055E+001	4.1245517E-001	4.1228840E-001	-1.900706409284587E-003	0	7.0230226E-006	14	0	-7.8363922E-007	2.1691325E+005
2	0	0	1	0	3.982109899403440E+001	4.0937510E-001	4.0918487E-001	-2.154056889612585E-003	0	6.8952991E-006	14	0	-8.8140752E-007	1.8996011E+005
2	0	0	1	0	3.988269899247825E+001	4.0629515E-001	4.0610629E-001	-2.434676779024404E-003	0	6.7509854E-006	14	0	-9.8873761E-007	1.6680091E+005
2	0	0	1	0	3.994429899092211E+001	4.0321514E-001	4.0306604E-001	-2.739843929109457E-003	0	6.5884442E-006	14	0	-1.1043380E-006	1.4711277E+005
2	0	0	1	0	4.000569898937101E+001	4.0014511E-001	3.9993006E-001	-3.078578039295319E-003	0	6.4063665E-006	14	0	-1.2312159E-006	1.2990740E+005
2	0	0	1	0	4.006729898781487E+001	3.9706510E-001	3.9686173E-001	-3.454666688836025E-003	0	6.2015647E-006	14	0	-1.3710250E-006	1.1487700E+005
2	0	0	1	0	4.012889898625872E+001	3.9398509E-001	3.9375868E-001	-3.872224023295054E-003	0	5.9720996E-006	14	0	-1.5247218E-006	1.0168799E+005
2	0	0	1	0	4.019049898470257E+001	3.9090514E-001	3.9065486E-001	-4.322044215645318E-003	0	5.7156972E-006	14	0	-1.6884276E-006	9.0386594E+004
2	0	0	1	0	4.025189898315148E+001	3.8783506E-001	3.8757065E-001	-4.823340503583878E-003	0	5.4307689E-006	14	0	-1.8693852E-006	8.0353156E+004
2	0	0	1	0	4.031349898159533E+001	3.8475507E-001	3.8449475E-001	-5.368577032358601E-003	0	5.1124607E-006	14	0	-2.0641896E-006	7.1619492E+004
2	0	0	1	0	4.037509898003918E+001	3.8167509E-001	3.8139436E-001	-5.972947562000140E-003	0	4.7584235E-006	14	0	-2.2780484E-006	6.3853625E+004
2	0	0	1	0	4.043669897848304E+001	3.7859508E-001	3.7829763E-001	-6.630894934225362E-003	0	4.3652640E-006	14	0	-2.5084519E-006	5.7050766E+004
2	0	0	1	0	4.049829897692689E+001	3.7551507E-001	3.7523434E-001	-7.342067058634442E-003	0	3.9295442E-006	14	0	-2.7549956E-006	5.1107453E+004
2	0	0	1	0	4.055969897537580E+001	3.7244508E-001	3.7215742E-001	-8.124302212827603E-003	0	3.4491741E-006	14	0	-3.0235194E-006	4.5807926E+004
2	0	0	1	0	4.062129897381965E+001	3.6936510E-001	3.6907580E-001	-8.988773395291826E-003	0	2.9161977E-006	14	0	-3.3175388E-006	4.1059641E+004
2	0	0	1	0	4.068289897226350E+001	3.6628509E-001	3.6602482E-001	-9.924177491689001E-003	0	2.3273849E-006	14	0	-3.6324952E-006	3.6882133E+004
2	0	0	1	0	4.075989897031832E+001	3.6243394E-001	3.6220568E-001	-1.120746778326598E-002	0	1.4948192E-006	14	0	-4.0594086E-006	3.2318244E+004
2	0	0	1	0	4.083669896837819E+001	3.5859507E-001	3.5835990E-001	-1.260961362318286E-002	0	5.7928321E-007	13	0	-4.5187799E-006	2.8419578E+004
2	0	0	1	0	4.089829896682204E+001	3.5551506E-001	3.5526642E-001	-1.386045794279603E-002	0	-2.4460780E-007	13	0	-4.9241553E-006	2.5631650E+004
2	0	0	1	0	4.095989896526589E+001	3.5243502E-001	3.5213637E-001	-1.524018382180112E-002	0	-1.1500358E-006	13	0	-5.3666231E-006	2.3105783E+004
2	0	0	1	0	4.102149896370975E+001	3.4935504E-001	3.4907383E-001	-1.671945645391998E-002	0	-2.1438996E-006	13	0	-5.8363248E-006	2.0878301E+004
2	0	0	1	0	4.108289896215865E+001	3.4628505E-001	3.4597474E-001	-1.829615973111420E-002	0	-3.2289111E-006	13	0	-6.3300090E-006	1.8909691E+004
2	0	0	1	0	4.114449896060250E+001	3.4320506E-001	3.4293228E-001	-2.000316813261853E-002	0	-4.4189437E-006	13	0	-6.8597319E-006	1.7143898E+004
2	0	0	1	0	4.120609895904636E+001	3.4012499E-001	3.3979443E-001	-2.185388600911792E-002	0	-5.7190305E-006	13	0	-7.4258287E-006	1.5548467E+004
2	0	0	1	0	4.126769895749021E+001	3.3704501E-001	3.3676589E-001	-2.386328804225671E-002	0	-7.1387603E-006	13	0	-8.0363416E-006	1.4112300E+004
2	0	0	1	0	4.132929895593406E+001	3.3396503E-001	3.3365992E-001	-2.599754682661615E-002	0	-8.6865657E-006	13	0	-8.6743394E-006	1.2834285E+004
2	0	0	1	0	4.139069895438297E+001	3.3089498E-001	3.3065793E-001	-2.824544473475560E-002	0	-1.0364323E-005	13	0	-9.3395802E-006	1.1706593E+004
2	0	0	1	0	4.145229895282682E+001	3.2781497E-001	3.2753080E-001	-3.068215977932887E-002	0	-1.2192500E-005	13	0	-1.0049353E-005	1.0674959E+004
2	0	0	1	0	4.151389895127068E+001	3.2473499E-001	3.2446280E-001	-3.326009860232981E-002	0	-1.4175508E-005	13	0	-1.0791665E-005	9.7553164E+003
2	0	0	1	0	4.157549894971453E+001	3.2165498E-001	3.2138458E-001	-3.599565235961688E-002	0	-1.6323012E-005	13	0	-1.1568448E-005	8.9284277E+003
2	0	0	1	0	4.163689894816343E+001	3.1858498E-001	3.1828398E-001	-3.893632759618765E-002	0	-1.8638471E-005	13	0	-1.2392809E-005	8.1744736E+003
2	0	0	1	0	4.169849894660729E+001	3.1550497E-001	3.1520972E-001	-4.201340015069199E-002	0	-2.1147362E-005	13	0	-1.3243032E-005	7.5025996E+003
2	0	0	1	0	4.176009894505114E+001	3.1242499E-001	3.1212592E-001	-4.528095443862390E-002	0	-2.3852494E-005	13	0	-1.4133359E-005	6.8930952E+003
2	0	0	1	0	4.182169894349499E+001	3.0934495E-001	3.0898032E-001	-4.872598836308267E-002	0	-2.6764536E-005	13	0	-1.5055371E-005	6.3411812E+003
2	0	0	1	0	4.188329894193885E+001	3.0626500E-001	3.0593279E-001	-5.228352516659662E-002	0	-2.9892968E-005	13	0	-1.5995245E-005	5.8514185E+003
2	0	0	1	0	4.194469894038775E+001	3.0319494E-001	3.0293015E-001	-5.601636270690824E-002	0	-3.3236036E-005	13	0	-1.6969045E-005	5.4078867E+003
2	0	0	1	0	4.200629893883161E+001	3.0011493E-001	2.9979053E-001	-5.994050060913592E-002	0	-3.6826266E-005	13	0	-1.7969594E-005	5.0014688E+003
2	0	0	1	0	4.206789893727546E+001	2.9703492E-001	2.9674140E-001	-6.397131211116358E-002	0	-4.0662355E-005	13	0	-1.8982937E-005	4.6386636E+003
2	0	0	1	0	4.212949893571931E+001	2.9395494E-001	2.9370648E-001	-6.815436278558429E-002	0	-4.4751610E-005	13	0	-2.0017378E-005	4.3094302E+003
2	0	0	1	0	4.219089893416822E+001	2.9088497E-001	2.9057837E-001	-7.250812554360364E-002	0	-4.9090504E-005	13	0	-2.1069292E-005	4.0075283E+003
2	0	0	1	0	4.225249893261207E+001	2.8780490E-001	2.8749055E-001	-7.699264572070059E-002	0	-5.3716456E-005	13	0	-2.2134658E-005	3.7340000E+003
2	0	0	1	0	4.231409893105592E+001	2.8472495E-001	2.8446773E-001	-8.160817238604023E-002	0	-5.8622903E-005	13	0	-2.3214890E-005	3.4857749E+003
2	0	0	1	0	4.237569892949978E+001	2.8164491E-001	2.8136426E-001	-8.632345712214251E-002	0	-6.3817461E-005	13	0	-2.4288336E-005	3.2594185E+003
2	0	0	1	0	4.243729892794363E+001	2.7856490E-001	2.7825972E-001	-9.115396832703992E-002	0	-6.9306836E-005	13	0	-2.5364478E-005	3.0526343E+003
2	0	0	1	0	4.249869892639254E+001	2.7549490E-001	2.7514562E-001	-9.607901263608010E-002	0	-7.5077987E-005	13	0	-2.6435719E-005	2.8637432E+003
2	0	0	1	0	4.256029892483639E+001	2.7241489E-001	2.7215090E-001	-1.010692028601753E-001	0	-8.1174243E-005	13	0	-2.7506076E-005	2.6927185E+003
2	0	0	1	0	4.262189892328024E+001	2.6933491E-001	2.6901555E-001	-1.060954651415240E-001	0	-8.7579218E-005	13	0	-2.8541330E-005	2.5355989E+003
2	0	0	1	0	4.269579892141337E+001	2.6564109E-001	2.6526797E-001	-1.119643269900479E-001	0	-9.5703741E-005	13	0	-2.9700550E-005	2.3692185E+003
2	0	0	1	0	4.276969891954650E+001	2.6194486E-001	2.6169541E-001	-1.182825149654627E-001	0	-1.0421065E-004	12	0	-3.0953990E-005	2.2124607E+003
2	0	0	1	0	4.283109891799540E+001	2.5887489E-001	2.5853485E-001	-1.234035681033863E-001	0	-1.1165642E-004	12	0	-3.1904125E-005	2.0950354E+003
2	0	0	1	0	4.289269891643926E+001	2.5579485E-001	2.5546882E-001	-1.284459091272115E-001	0	-1.1943924E-004	12	0	-3.2813925E-005	1.9889214E+003
2	0	0	1	0	4.295429891488311E+001	2.5271487E-001	2.5243101E-001	-1.334917287534698E-001	0	-1.2753338E-004	12	0	-3.3697452E-005	1.8909861E+003
2	0	0	1	0	4.301589891332696E+001	2.4963485E-001	2.4931620E-001	-1.386298667514614E-001	0	-1.3594111E-004	12	0	-3.4562672E-005	1.7984307E+003
2	0	0	1	0	4.307729891177587E+001	2.4656487E-001	2.4622852E-001	-1.435692081395370E-001	0	-1.4463058E-004	12	0	-3.5350833E-005	1.7150510E+003
2	0	0	1	0	4.313889891021972E+001	2.4348484E-001	2.4317759E-001	-1.484559430788646E-001	0	-1.5365140E-004	12	0	-3.6101159E-005	1.6380455E+003
2	0	0	1	0	4.320049890866358E+001	2.4040486E-001	2.4009836E-001	-1.534400773360343E-001	0	-1.6297636E-004	12	0	-3.6840709E-005	1.5647695E+003
2	0	0	1	0	4.326209890710743E+001	2.3732485E-001	2.3699763E-001	-1.583288386570754E-001	0	-1.7260565E-004	12	0	-3.7523561E-005	1.4968696E+003
2	0	0	1	0	4.332369890555128E+001	2.3424482E-001	2.3391342E-001	-1.632532505597100E-001	0	-1.8253748E-004	12	0	-3.8187125E-005	1.4328256E+003
2	0	0	1	0	4.338509890400019E+001	2.3117484E-001	2.3085789E-001	-1.679482395239260E-001	0	-1.9273153E-004	12	0	-3.8772178E-005	1.3745776E+003
2	0	0	1	0	4.344669890244404E+001	2.2809482E-001	2.2774114E-001	-1.723460619148458E-001	0	-2.0323916E-004	12	0	-3.9250288E-005	1.3214177E+003
2	0	0	1	0	4.350829890088789E+001	2.2501479E-001	2.2465272E-001	-1.766564256456719E-001	0	-2.1401416E-004	12	0	-3.9686347E-005	1.2716929E+003
2	0	0	1	0	4.356989889933175E+001	2.2193481E-001	2.2161084E-001	-1.809745510994949E-001	0	-2.2505442E-004	12	0	-4.0105922E-005	1.2245415E+003
2	0	0	1	0	4.363129889778065E+001	2.1886481E-001	2.1853767E-001	-1.852663189077006E-001	0	-2.3632406E-004	12	0	-4.0487670E-005	1.1795867E+003
2	0	0	1	0	4.369289889622451E+001	2.1578480E-001	2.1543796E-001	-1.893614356204782E-001	0	-2.4788812E-004	12	0	-4.0795643E-005	1.1377076E+003
2	0	0	1	0	4.375449889466836E+001	2.1270478E-001	2.1240306E-001	-1.933835894413754E-001	0	-2.5970180E-004	12	0	-4.1075265E-005	1.0983510E+003
2	0	0	1	0	4.381609889311221E+001	2.0962480E-001	2.0928650E-001	-1.973165263579530E-001	0	-2.7176095E-004	12	0	-4.1295683E-005	1.0606638E+003
2	0	0	1	0	4.387769889155607E+001	2.0654479E-001	2.0620179E-001	-2.010723628135431E-001	0	-2.8405624E-004	12	0	-4.1461481E-005	1.0255104E+003
2	0	0	1	0	4.393909889000497E+001	2.0347477E-001	2.0314907E-001	-2.047604146595545E-001	0	-2.9654009E-004	12	0	-4.1596886E-005	9.9213055E+002
2	0	0	1	0	4.400069888844882E+001	2.0039478E-001	2.0004067E-001	-2.085590454516821E-001	0	-3.0929543E-004	12	0	-4.1720290E-005	9.5915607E+002
2	0	0	1	0	4.406229888689268E+001	1.9731478E-001	1.9698143E-001	-2.119464223149978E-001	0	-3.2227102E-004	12	0	-4.1749510E-005	9.2939258E+002
2	0	0	1	0	4.412389888533653E+001	1.9423588E-001	1.9386248E-001	-2.149606940744311E-001	0	-3.3544344E-004	12	0	-4.1672814E-005	9.0185083E+002
2	0	0	1	0	4.418539888378291E+001	1.9116031E-001	1.9080456E-001	-2.182021101817790E-001	0	-3.4878563E-004	12	0	-4.1633957E-005	8.7443958E+002
2	0	0	1	0	4.424689888222929E+001	1.8808585E-001	1.8773173E-001	-2.217158005352076E-001	0	-3.6233710E-004	12	0	-4.1623091E-005	8.4672235E+002
2	0	0	1	0	4.430849888067314E+001	1.8500586E-001	1.8461804E-001	-2.247040904103519E-001	0	-3.7611066E-004	12	0	-4.1484429E-005	8.2160516E+002
2	0	0	1	0	4.437009887911699E+001	1.8192585E-001	1.8155541E-001	-2.274514367862208E-001	0	-3.9005961E-004	12	0	-4.1295039E-005	7.9821613E+002
2	0	0	1	0	4.443169887756085E+001	1.7884587E-001	1.7844620E-001	-2.302718381236515E-001	0	-4.0417997E-004	12	0	-4.1091134E-005	7.7493713E+002
2	0	0	1	0	4.449309887600975E+001	1.7577584E-001	1.7543660E-001	-2.332746823844873E-001	0	-4.1843354E-004	12	0	-4.0924919E-005	7.5206018E+002
2	0	0	1	0	4.455469887445361E+001	1.7269585E-001	1.7235959E-001	-2.359523255802598E-001	0	-4.3290868E-004	12	0	-4.0668645E-005	7.3048480E+002
2	0	0	1	0	4.461629887289746E+001	1.6961582E-001	1.6926932E-001	-2.382966258034920E-001	0	-4.4753647E-004	12	0	-4.0336308E-005	7.1033032E+002
2	0	0	1	0	4.467789887134131E+001	1.6653581E-001	1.6620004E-001	-2.409101493004693E-001	0	-4.6231764E-004	12	0	-4.0039278E-005	6.8988391E+002
2	0	0	1	0	4.473949886978517E+001	1.6345583E-001	1.6311483E-001	-2.431097065619074E-001	0	-4.7724595E-004	12	0	-3.9654798E-005	6.7095154E+002
2	0	0	1	0	4.480089886823407E+001	1.6038582E-001	1.6001192E-001	-2.452430243846115E-001	0	-4.9225881E-004	12	0	-3.9241808E-005	6.5246265E+002
2	0	0	1	0	4.486249886667792E+001	1.5730582E-001	1.5696661E-001	-2.474597326791255E-001	0	-5.0745381E-004	12	0	-3.8842914E-005	6.3431171E+002
2	0	0	1	0	4.492409886512178E+001	1.5422580E-001	1.5387206E-001	-2.499720652250055E-001	0	-5.2279595E-004	12	0	-3.8463717E-005	6.1555701E+002
2	0	0	1	0	4.498569886356563E+001	1.5114579E-001	1.5080173E-001	-2.520573194665925E-001	0	-5.3827959E-004	12	0	-3.8010679E-005	5.9828351E+002
2	0	0	1	0	4.504709886201454E+001	1.4807579E-001	1.4769335E-001	-2.538675336431060E-001	0	-5.5383111E-004	12	0	-3.7494548E-005	5.8177332E+002
2	0	0	1	0	4.510869886045839E+001	1.4499578E-001	1.4462411E-001	-2.557007139871743E-001	0	-5.6954502E-004	12	0	-3.6980487E-005	5.6559918E+002
2	0	0	1	0	4.517029885890224E+001	1.4191578E-001	1.4150193E-001	-2.576916207605996E-001	0	-5.8537646E-004	12	0	-3.6463862E-005	5.4911346E+002
2	0	0	1	0	4.523189885734610E+001	1.3883577E-001	1.3847463E-001	-2.596158146798651E-001	0	-6.0132862E-004	12	0	-3.5950205E-005	5.3338287E+002
2	0	0	1	0	4.529349885578995E+001	1.3575578E-001	1.3540079E-001	-2.613229700203901E-001	0	-6.1739219E-004	12	0	-3.5383335E-005	5.1813580E+002
2	0	0	1	0	4.535489885423885E+001	1.3268577E-001	1.3232541E-001	-2.629200204573499E-001	0	-6.3350488E-004	12	0	-3.4790999E-005	5.0329150E+002
2	0	0	1	0	4.541649885268271E+001	1.2960576E-001	1.2928081E-001	-2.644094489362092E-001	0	-6.4976449E-004	12	0	-3.4183067E-005	4.8894171E+002
2	0	0	1	0	4.547809885112656E+001	1.2652574E-001	1.2618737E-001	-2.659020140981625E-001	0	-6.6611549E-004	12	0	-3.3553475E-005	4.7456342E+002
2	0	0	1	0	4.553969884957041E+001	1.2344575E-001	1.2313658E-001	-2.675106829765566E-001	0	-6.8256207E-004	12	0	-3.2940352E-005	4.6030527E+002
2	0	0	1	0	4.560109884801932E+001	1.2037574E-001	1.2005823E-001	-2.692149912435751E-001	0	-6.9905736E-004	12	0	-3.2321477E-005	4.4595670E+002
2	0	0	1	0	4.566269884646317E+001	1.1729574E-001	1.1692612E-001	-2.708755112326935E-001	0	-7.1570952E-004	12	0	-3.1672422E-005	4.3165997E+002
2	0	0	1	0	4.572429884490703E+001	1.1421573E-001	1.1383247E-001	-2.722271740665816E-001	0	-7.3245412E-004	12	0	-3.0988293E-005	4.1815250E+002
2	0	0	1	0	4.578589884335088E+001	1.1113571E-001	1.1078054E-001	-2.735248844668736E-001	0	-7.4928009E-004	12	0	-3.0301233E-005	4.0501080E+002
2	0	0	1	0	4.584749884179473E+001	1.0805571E-001	1.0765018E-001	-2.748830997980196E-001	0	-7.6618727E-004	12	0	-2.9591216E-005	3.9162167E+002
2	0	0	1	0	4.590889884024364E+001	1.0498571E-001	1.0460810E-001	-2.761702241813437E-001	0	-7.8312092E-004	12	0	-2.8889643E-005	3.7878125E+002
2	0	0	1	0	4.597049883868749E+001	1.0190571E-001	1.0151911E-001	-2.772058790833976E-001	0	-8.0018118E-004	12	0	-2.8141694E-005	3.6622278E+002
2	0	0	1	0	4.603209883713134E+001	9.8825708E-002	9.8436080E-002	-2.780148942647589E-001	0	-8.1729773E-004	12	0	-2.7366696E-005	3.5406766E+002
2	0	0	1	0	4.609369883557520E+001	9.5745698E-002	9.5395230E-002	-2.788100215232219E-001	0	-8.3446270E-004	12	0	-2.6597147E-005	3.4215137E+002
2	0	0	1	0	4.615509883402410E+001	9.2675693E-002	9.2309475E-002	-2.798933615242958E-001	0	-8.5163018E-004	12	0	-2.5836809E-005	3.2980231E+002
2	0	0	1	0	4.621669883246796E+001	8.9595690E-002	8.9214593E-002	-2.810834031578343E-001	0	-8.6892309E-004	12	0	-2.5076741E-005	3.1739545E+002
2	0	0	1	0	4.627829883091181E+001	8.6515695E-002	8.6161241E-002	-2.823462561311478E-001	0	-8.8629202E-004	12	0	-2.4327304E-005	3.0516162E+002
2	0	0	1	0	4.633989882935566E+001	8.3435677E-002	8.3059780E-002	-2.833201717936298E-001	0	-9.0372952E-004	12	0	-2.3532511E-005	2.9316577E+002
2	0	0	1	0	4.640149882779951E+001	8.0355674E-002	7.9987057E-002	-2.838239558416689E-001	0	-9.2121109E-004	12	0	-2.2702243E-005	2.8181924E+002
2	0	0	1	0	4.646289882624842E+001	7.7285662E-002	7.6872848E-002	-2.845604675619748E-001	0	-9.3867426E-004	12	0	-2.1874974E-005	2.7014590E+002
2	0	0	1	0	4.652449882469227E+001	7.4205659E-002	7.3742248E-002	-2.851075603191342E-001	0	-9.5623336E-004	12	0	-2.1024473E-005	2.5864713E+002
2	0	0	1	0	4.658609882313613E+001	7.1125656E-002	7.0704021E-002	-2.862293429332978E-001	0	-9.7384385E-004	12	0	-2.0237565E-005	2.4701877E+002
2	0	0	1	0	4.664769882157998E+001	6.8045653E-002	6.7637861E-002	-2.873589095925480E-001	0	-9.9152548E-004	12	0	-1.9436342E-005	2.3537764E+002
2	0	0	1	0	4.670909882002888E+001	6.4975649E-002	6.4546533E-002	-2.880538779004933E-001	0	-1.0092041E-003	12	0	-1.8592878E-005	2.2407799E+002
2	0	0	1	0	4.677069881847274E+001	6.1895642E-002	6.1449993E-002	-2.888059719279461E-001	0	-1.0269850E-003	12	0	-1.7747125E-005	2.1277258E+002
2	0	0	1	0	4.683229881691659E+001	5.8815636E-002	5.8391757E-002	-2.896029572579772E-001	0	-1.0448133E-003	12	0	-1.6910426E-005	2.0162694E+002
2	0	0	1	0	4.689389881536044E+001	5.5735629E-002	5.5336416E-002	-2.902189934399857E-001	0	-1.0626850E-003	12	0	-1.6059679E-005	1.9067123E+002
2	0	0	1	0	4.695549881380430E+001	5.2655622E-002	5.2234434E-002	-2.908956020917426E-001	0	-1.0805961E-003	12	0	-1.5194767E-005	1.7956419E+002
2	0	0	1	0	4.701689881225320E+001	4.9585618E-002	4.9217191E-002	-2.917723414784787E-001	0	-1.0984966E-003	12	0	-1.4360215E-005	1.6868353E+002
2	0	0	1	0	4.707849881069706E+001	4.6505611E-002	4.6131738E-002	-2.925915202612943E-001	0	-1.1165086E-003	12	0	-1.3497755E-005	1.5766602E+002
2	0	0	1	0	4.714009880914091E+001	4.3425605E-002	4.3015126E-002	-2.931748870872601E-001	0	-1.1345620E-003	12	0	-1.2610954E-005	1.4672173E+002
2	0	0	1	0	4.720169880758476E+001	4.0345598E-002	3.9981689E-002	-2.938209799596889E-001	0	-1.1526535E-003	12	0	-1.1747459E-005	1.3607500E+002
2	0	0	1	0	4.726309880603367E+001	3.7275594E-002	3.6849193E-002	-2.944076796019219E-001	0	-1.1707244E-003	12	0	-1.0848686E-005	1.2516383E+002
2	0	0	1	0	4.732469880447752E+001	3.4195591E-002	3.3745255E-002	-2.949767569007289E-001	0	-1.1888894E-003	12	0	-9.9540657E-006	1.1439971E+002
2	0	0	1	0	4.738629880292137E+001	3.1115586E-002	3.0659948E-002	-2.956034308806306E-001	0	-1.2070915E-003	12	0	-9.0631856E-006	1.0371986E+002
2	0	0	1	0	4.744789880136523E+001	2.8035579E-002	2.7583148E-002	-2.961139499620806E-001	0	-1.2253278E-003	12	0	-8.1677554E-006	9.3150452E+001
2	0	0	1	0	4.750949879980908E+001	2.4955573E-002	2.4525568E-002	-2.968627375344202E-001	0	-1.2436031E-003	12	0	-7.2807270E-006	8.2615852E+001
2	0	0	1	0	4.757089879825799E+001	2.1885568E-002	2.1481488E-002	-2.970966049228734E-001	0	-1.2618490E-003	12	0	-6.3820771E-006	7.2304726E+001
2	0	0	1	0	4.763249879670184E+001	1.8805563E-002	1.8401723E-002	-2.976158434086766E-001	0	-1.2801762E-003	12	0	-5.4766442E-006	6.1830456E+001
2	0	0	1	0	4.769409879514569E+001	1.5725559E-002	1.5310560E-002	-2.984408950336457E-001	0	-1.2985469E-003	12	0	-4.5692973E-006	5.1301819E+001
2	0	0	1	0	4.775569879358954E+001	1.2645553E-002	1.2233245E-002	-2.983194536886664E-001	0	-1.3169376E-003	12	0	-3.6494150E-006	4.1007198E+001
2	0	0	1	0	4.781709879203845E+001	9.5755467E-003	9.1508999E-003	-2.987595443057467E-001	0	-1.3352769E-003	12	0	-2.7339188E-006	3.0629648E+001
2	0	0	1	0	4.787869879048230E+001	6.4955414E-003	6.0546403E-003	-2.994566479548615E-001	0	-1.3537128E-003	12	0	-1.8131022E-006	2.0218754E+001
2	0	0	1	0	4.794029878892616E+001	3.4155366E-003	2.9826611E-003	-3.000976369933497E-001	0	-1.3721895E-003	12	0	-8.9508956E-007	9.9389687E+000
2	0	0	1	0	4.800189878737001E+001	3.3553093E-004	-1.8978512E-004	-3.006140296429244E-001	0	-1.3907028E-003	12	0	5.7052070E-008	6.3132489E-001
2	0	0	1	0	4.806349878581386E+001	-2.7444754E-003	-3.4100048E-003	-3.009695512719244E-001	0	-1.4092420E-003	12	0	1.0263076E-006	1.1330066E+001
2	0	0	1	0	4.812489878426277E+001	-5.8144820E-003	-6.4923172E-003	-3.014907813659014E-001	0	-1.4277479E-003	12	0	1.9573738E-006	2.1534048E+001
2	0	0	1	0	4.818649878270662E+001	-8.8944901E-003	-9.6006673E-003	-3.020191624160251E-001	0	-1.4463463E-003	12	0	2.8995855E-006	3.1788273E+001
2	0	0	1	0	4.824809878115047E+001	-1.1974497E-002	-1.2674129E-002	-3.023009543870212E-001	0	-1.4649697E-003	12	0	3.8314010E-006	4.1925533E+001
2	0	0	1	0	4.830969877959433E+001	-1.5054504E-002	-1.5767187E-002	-3.022666895185395E-001	0	-1.4835994E-003	12	0	4.7658955E-006	5.2163162E+001
2	0	0	1	0	4.837109877804323E+001	-1.8124511E-002	-1.8775277E-002	-3.024211025944288E-001	0	-1.5021728E-003	12	0	5.6780400E-006	6.2083221E+001
2	0	0	1	0	4.843269877648709E+001	-2.1204518E-002	-2.1840679E-002	-3.031653990800312E-001	0	-1.5208339E-003	12	0	6.6213379E-006	7.2042122E+001
2	0	0	1	0	4.849429877493094E+001	-2.4284527E-002	-2.4918549E-002	-3.042824985222490E-001	0	-1.5395534E-003	12	0	7.5822782E-006	8.1892807E+001
2	0	0	1	0	4.855589877337479E+001	-2.7364532E-002	-2.8006300E-002	-3.045217269802940E-001	0	-1.5583163E-003	12	0	8.5285274E-006	9.1968155E+001
2	0	0	1	0	4.861749877181865E+001	-3.0444536E-002	-3.1120058E-002	-3.051023905395880E-001	0	-1.5771011E-003	12	0	9.4948045E-006	1.0199873E+002
2	0	0	1	0	4.867889877026755E+001	-3.3514544E-002	-3.4175679E-002	-3.054202749335118E-001	0	-1.5958541E-003	12	0	1.0437945E-005	1.1189722E+002
2	0	0	1	0	4.874049876871140E+001	-3.6594551E-002	-3.7274145E-002	-3.053889467153121E-001	0	-1.6146757E-003	12	0	1.1383112E-005	1.2205466E+002
2	0	0	1	0	4.880209876715526E+001	-3.9674558E-002	-4.0376086E-002	-3.052400037021248E-001	0	-1.6334913E-003	12	0	1.2324396E-005	1.3227652E+002
2	0	0	1	0	4.886369876559911E+001	-4.2754564E-002	-4.3447483E-002	-3.058781374720110E-001	0	-1.6523242E-003	12	0	1.3289636E-005	1.4204181E+002
2	0	0	1	0	4.892509876404802E+001	-4.5824576E-002	-4.6547707E-002	-3.055128479078648E-001	0	-1.6711019E-003	12	0	1.4220923E-005	1.5235925E+002
2	0	0	1	0	4.898669876249187E+001	-4.8904579E-002	-4.9580246E-002	-3.054236465576408E-001	0	-1.6899271E-003	12	0	1.5142979E-005	1.6233270E+002
2	0	0	1	0	4.904829876093572E+001	-5.1984586E-002	-5.2675925E-002	-3.053184975772765E-001	0	-1.7087457E-003	12	0	1.6082935E-005	1.7252779E+002
2	0	0	1	0	4.910989875937958E+001	-5.5064589E-002	-5.5743046E-002	-3.054981423491636E-001	0	-1.7275675E-003	12	0	1.7029397E-005	1.8246608E+002
2	0	0	1	0	4.917149875782343E+001	-5.8144603E-002	-5.8846541E-002	-3.058521230632234E-001	0	-1.7464051E-003	12	0	1.7998340E-005	1.9240193E+002
2	0	0	1	0	4.923289875627233E+001	-6.1214611E-002	-6.1876468E-002	-3.063474749656336E-001	0	-1.7652077E-003	12	0	1.8955699E-005	2.0198132E+002
2	0	0	1	0	4.929449875471619E+001	-6.4294614E-002	-6.4963289E-002	-3.066421669349584E-001	0	-1.7840971E-003	12	0	1.9920484E-005	2.1185373E+002
2	0	0	1	0	4.935609875316004E+001	-6.7374624E-002	-6.8047814E-002	-3.062777547148783E-001	0	-1.8029828E-003	12	0	2.0841531E-005	2.2217680E+002
2	0	0	1	0	4.941769875160389E+001	-7.0454627E-002	-7.1131781E-002	-3.059673239010592E-001	0	-1.8218473E-003	12	0	2.1764001E-005	2.3248163E+002
2	0	0	1	0	4.947909875005280E+001	-7.3524639E-002	-7.4196108E-002	-3.062306749851693E-001	0	-1.8406488E-003	12	0	2.2721124E-005	2.4228830E+002
2	0	0	1	0	4.954069874849665E+001	-7.6604642E-002	-7.7283964E-002	-3.074177934596198E-001	0	-1.8595579E-003	12	0	2.3758466E-005	2.5139717E+002
2	0	0	1	0	4.960229874694051E+001	-7.9684652E-002	-8.0411263E-002	-3.074232146531672E-001	0	-1.8785045E-003	12	0	2.4720290E-005	2.6156537E+002
2	0	0	1	0	4.966389874538436E+001	-8.2764655E-002	-8.3456069E-002	-3.072849301832985E-001	0	-1.8974441E-003	12	0	2.5644793E-005	2.7159180E+002
2	0	0	1	0	4.972549874382821E+001	-8.5844666E-002	-8.6575851E-002	-3.077317570012266E-001	0	-1.9163949E-003	12	0	2.6642139E-005	2.8133545E+002
2	0	0	1	0	4.978689874227712E+001	-8.8914670E-002	-8.9611284E-002	-3.080282313371976E-001	0	-1.9353079E-003	12	0	2.7602806E-005	2.9091907E+002
2	0	0	1	0	4.984849874072097E+001	-9.1994673E-002	-9.2754669E-002	-3.077356183025983E-001	0	-1.9542808E-003	12	0	2.8543916E-005	3.0141025E+002
2	0	0	1	0	4.991009873916482E+001	-9.5074676E-002	-9.5802329E-002	-3.075399424172767E-001	0	-1.9732376E-003	12	0	2.9463043E-005	3.1151184E+002
2	0	0	1	0	4.997169873760868E+001	-9.8154686E-002	-9.8868288E-002	-3.080937998497113E-001	0	-1.9922063E-003	12	0	3.0460707E-005	3.2090320E+002
2	0	0	1	0	5.000539873675734E+001	-9.9844120E-002	-1.0051113E-001	-3.085876575538089E-001	0	-2.0025964E-003	12	0	3.1016494E-005	3.2571338E+002
2	0	0	1	0	5.000579873674724E+001	-1.0015190E-001	-1.0087366E-001	-3.097840249538422E-001	0	-2.0027203E-003	12	0	3.1249048E-005	3.2562576E+002