mode	ox/red	error	control changes		time/s	control/V	Ewe/V	<I>/mA		(Q-Qo)/C	I Range		Pwe/W	Rwe/Ohm	
3	0	0	1	0	0.000000000000000E+000	0.0000000E+000	4.4747740E-001	0.000000000000000E+000	0	0.0000000E+000	14	0	0.0000000E+000	0.0000000E+000
3	0	0	0	0	2.999979924214131E+001	9.0028149E-001	4.4749647E-001	0.000000000000000E+000	0	0.0000000E+000	14	0	0.0000000E+000	0.0000000E+000
2	1	0	1	0	3.003059924136323E+001	8.9889687E-001	8.9887768E-001	9.968810404340417E-003	0	7.2127381E-007	13	0	8.9607411E-006	9.0169000E+004
2	1	0	1	0	3.006449924050685E+001	8.9720500E-001	8.9717579E-001	6.561380278645182E-003	0	9.5552775E-007	13	0	5.8867117E-006	1.3673583E+005
2	1	0	1	0	3.012609923895070E+001	8.9412487E-001	8.9407754E-001	4.334085152296521E-003	0	1.2806598E-006	13	0	3.8750081E-006	2.0628980E+005
2	1	0	1	0	3.018769923739455E+001	8.9104491E-001	8.9098960E-001	3.489308780698855E-003	0	1.5163033E-006	13	0	3.1089378E-006	2.5534845E+005
2	1	0	1	0	3.026449923545442E+001	8.8720447E-001	8.8718247E-001	2.920314512468075E-003	0	1.7550918E-006	13	0	2.5908519E-006	3.0379691E+005
2	1	0	1	0	3.034149923350924E+001	8.8335490E-001	8.8337088E-001	2.516136399015587E-003	0	1.9655447E-006	14	0	2.2226816E-006	3.5108228E+005
2	1	0	1	0	3.040309923195309E+001	8.8027483E-001	8.8022268E-001	2.307684732749060E-003	0	2.1127537E-006	14	0	2.0312764E-006	3.8143109E+005
2	1	0	1	0	3.046469923039695E+001	8.7719488E-001	8.7715328E-001	2.145517797819258E-003	0	2.2485767E-006	14	0	1.8819479E-006	4.0883056E+005
2	1	0	1	0	3.052609922884585E+001	8.7412483E-001	8.7412429E-001	2.007526771803807E-003	0	2.3747373E-006	14	0	1.7548280E-006	4.3542347E+005
2	1	0	1	0	3.058769922728970E+001	8.7104481E-001	8.7099159E-001	1.896647980918857E-003	0	2.4938533E-006	14	0	1.6519645E-006	4.5922681E+005
2	1	0	1	0	3.064929922573356E+001	8.6796486E-001	8.6795866E-001	1.798628747081844E-003	0	2.6065704E-006	14	0	1.5611354E-006	4.8256688E+005
2	1	0	1	0	3.071089922417741E+001	8.6488485E-001	8.6482197E-001	1.712097422261116E-003	0	2.7136248E-006	14	0	1.4806594E-006	5.0512428E+005
2	1	0	1	0	3.077249922262126E+001	8.6180478E-001	8.6178464E-001	1.634948906975162E-003	0	2.8157501E-006	14	0	1.4089738E-006	5.2710188E+005
2	1	0	1	0	3.083389922107017E+001	8.5873485E-001	8.5867250E-001	1.569625110590714E-003	0	2.9130886E-006	14	0	1.3477940E-006	5.4705581E+005
2	1	0	1	0	3.089549921951402E+001	8.5565490E-001	8.5564876E-001	1.509382961841658E-003	0	3.0070573E-006	14	0	1.2915017E-006	5.6688644E+005
2	1	0	1	0	3.095709921795788E+001	8.5257477E-001	8.5254955E-001	1.453576907542137E-003	0	3.0975539E-006	14	0	1.2392463E-006	5.8651838E+005
2	1	0	1	0	3.101869921640173E+001	8.4949481E-001	8.4945846E-001	1.406469398908891E-003	0	3.1848649E-006	14	0	1.1947374E-006	6.0396513E+005
2	1	0	1	0	3.108009921485063E+001	8.4642476E-001	8.4641522E-001	1.363060367831757E-003	0	3.2689909E-006	14	0	1.1537151E-006	6.2096681E+005
2	1	0	1	0	3.114169921329449E+001	8.4334481E-001	8.4336537E-001	1.324327925550307E-003	0	3.3509368E-006	14	0	1.1168923E-006	6.3682519E+005
2	1	0	1	0	3.120329921173834E+001	8.4026486E-001	8.4027320E-001	1.284051296893001E-003	0	3.4304633E-006	14	0	1.0789539E-006	6.5439225E+005
2	1	0	1	0	3.126489921018219E+001	8.3718479E-001	8.3721364E-001	1.244994871693127E-003	0	3.5076785E-006	14	0	1.0423266E-006	6.7246350E+005
2	1	0	1	0	3.132649920862605E+001	8.3410484E-001	8.3412588E-001	1.212720211462067E-003	0	3.5827838E-006	14	0	1.0115613E-006	6.8781394E+005
2	1	0	1	0	3.138789920707495E+001	8.3103484E-001	8.3101869E-001	1.186094906326561E-003	0	3.6557933E-006	14	0	9.8566704E-007	7.0063425E+005
2	1	0	1	0	3.144949920551881E+001	8.2795477E-001	8.2792646E-001	1.157890724436048E-003	0	3.7273464E-006	14	0	9.5864834E-007	7.1502988E+005
2	1	0	1	0	3.151109920396266E+001	8.2487476E-001	8.2489496E-001	1.135716561627082E-003	0	3.7972993E-006	14	0	9.3684685E-007	7.2632113E+005
2	1	0	1	0	3.157269920240651E+001	8.2179475E-001	8.2181185E-001	1.111232612275866E-003	0	3.8657163E-006	14	0	9.1322414E-007	7.3954981E+005
2	1	0	1	0	3.163409920085542E+001	8.1872475E-001	8.1873000E-001	1.089566856494233E-003	0	3.9324605E-006	14	0	8.9206105E-007	7.5142706E+005
2	1	0	1	0	3.169569919929927E+001	8.1564480E-001	8.1564945E-001	1.070306197707111E-003	0	3.9982701E-006	14	0	8.7299463E-007	7.6207113E+005
2	1	0	1	0	3.175729919774312E+001	8.1256479E-001	8.1259507E-001	1.049702553093182E-003	0	4.0628124E-006	14	0	8.5298313E-007	7.7411938E+005
2	1	0	1	0	3.181889919618698E+001	8.0948466E-001	8.0949533E-001	1.029548964345463E-003	0	4.1261619E-006	14	0	8.3341507E-007	7.8626213E+005
2	1	0	1	0	3.188049919463083E+001	8.0640477E-001	8.0649972E-001	1.012476416260526E-003	0	4.1883986E-006	14	0	8.1656196E-007	7.9656150E+005
2	1	0	1	0	3.194189919307973E+001	8.0333471E-001	8.0337256E-001	9.933728480916587E-004	0	4.2493230E-006	14	0	7.9804852E-007	8.0873213E+005
2	1	0	1	0	3.200349919152359E+001	8.0025470E-001	8.0027723E-001	9.791742526543256E-004	0	4.3095374E-006	14	0	7.8361086E-007	8.1729806E+005
2	1	0	1	0	3.206509918996744E+001	7.9717475E-001	7.9719335E-001	9.666174377668422E-004	0	4.3688278E-006	14	0	7.7058098E-007	8.2472475E+005
2	1	0	1	0	3.212669918841129E+001	7.9409474E-001	7.9417425E-001	9.549580621692859E-004	0	4.4272801E-006	14	0	7.5840313E-007	8.3163263E+005
2	1	0	1	0	3.218809918686020E+001	7.9102474E-001	7.9109049E-001	9.423548355821177E-004	0	4.4847093E-006	14	0	7.4548797E-007	8.3948263E+005
2	1	0	1	0	3.224969918530405E+001	7.8794461E-001	7.8797424E-001	9.290839523713448E-004	0	4.5416086E-006	14	0	7.3209424E-007	8.4811950E+005
2	1	0	1	0	3.231129918374791E+001	7.8486466E-001	7.8494698E-001	9.164579210853138E-004	0	4.5977890E-006	14	0	7.1937086E-007	8.5650081E+005
2	1	0	1	0	3.237289918219176E+001	7.8178471E-001	7.8185540E-001	9.040814287910228E-004	0	4.6532386E-006	14	0	7.0686093E-007	8.6480638E+005
2	1	0	1	0	3.243449918063561E+001	7.7870470E-001	7.7875364E-001	8.946570860946385E-004	0	4.7079807E-006	14	0	6.9671745E-007	8.7044931E+005
2	1	0	1	0	3.249589917908452E+001	7.7563471E-001	7.7565944E-001	8.864785472081117E-004	0	4.7619237E-006	14	0	6.8760545E-007	8.7498950E+005
2	1	0	1	0	3.255749917752837E+001	7.7255470E-001	7.7258247E-001	8.773242607849683E-004	0	4.8154984E-006	14	0	6.7780536E-007	8.8061225E+005
2	1	0	1	0	3.261909917597222E+001	7.6947469E-001	7.6952493E-001	8.714601261666465E-004	0	4.8685383E-006	14	0	6.7061029E-007	8.8302944E+005
2	1	0	1	0	3.268069917441608E+001	7.6639462E-001	7.6650715E-001	8.636452870369683E-004	0	4.9212053E-006	14	0	6.6199027E-007	8.8752544E+005
2	1	0	1	0	3.274209917286498E+001	7.6332468E-001	7.6344979E-001	8.550656545326593E-004	0	4.9730952E-006	14	0	6.5279971E-007	8.9285519E+005
2	1	0	1	0	3.280369917130884E+001	7.6024461E-001	7.6036072E-001	8.466720315320267E-004	0	5.0246836E-006	14	0	6.4377616E-007	8.9805813E+005
2	1	0	1	0	3.286529916975269E+001	7.5716466E-001	7.5727487E-001	8.398610052658718E-004	0	5.0758572E-006	14	0	6.3600561E-007	9.0166688E+005
2	1	0	1	0	3.292689916819654E+001	7.5408471E-001	7.5418776E-001	8.306287854532076E-004	0	5.1265924E-006	14	0	6.2645006E-007	9.0797213E+005
2	1	0	1	0	3.298849916664039E+001	7.5100464E-001	7.5108051E-001	8.246875424629038E-004	0	5.1769052E-006	14	0	6.1940676E-007	9.1074556E+005
2	1	0	1	0	3.304989916508930E+001	7.4793464E-001	7.4801350E-001	8.169936167985205E-004	0	5.2265973E-006	14	0	6.1112223E-007	9.1556838E+005
2	1	0	1	0	3.311149916353315E+001	7.4485457E-001	7.4489683E-001	8.149092577161270E-004	0	5.2761056E-006	14	0	6.0702331E-007	9.1408563E+005
2	1	0	1	0	3.317309916197701E+001	7.4177456E-001	7.4179906E-001	8.113451983009605E-004	0	5.3252829E-006	14	0	6.0185511E-007	9.1428294E+005
2	1	0	1	0	3.323469916042086E+001	7.3869461E-001	7.3877144E-001	8.034627983708005E-004	0	5.3741019E-006	14	0	5.9357535E-007	9.1948431E+005
2	1	0	1	0	3.329609915886977E+001	7.3562461E-001	7.3572099E-001	7.992885437821499E-004	0	5.4223924E-006	14	0	5.8805335E-007	9.2046981E+005
2	1	0	1	0	3.335769915731362E+001	7.3254460E-001	7.3262215E-001	7.911176401139315E-004	0	5.4705711E-006	14	0	5.7959028E-007	9.2605969E+005
2	1	0	1	0	3.341929915575747E+001	7.2946459E-001	7.2957981E-001	7.881116443530403E-004	0	5.5184173E-006	14	0	5.7499034E-007	9.2573156E+005
2	1	0	1	0	3.348089915420132E+001	7.2638458E-001	7.2647446E-001	7.834187612166315E-004	0	5.5660289E-006	14	0	5.6913370E-007	9.2731306E+005
2	1	0	1	0	3.354249915264518E+001	7.2330457E-001	7.2336149E-001	7.782935297893641E-004	0	5.6133504E-006	14	0	5.6298757E-007	9.2941988E+005
2	1	0	1	0	3.360389915109408E+001	7.2023457E-001	7.2031605E-001	7.773482075234400E-004	0	5.6602507E-006	14	0	5.5993638E-007	9.2663244E+005
2	1	0	1	0	3.366549914953794E+001	7.1715456E-001	7.1720451E-001	7.719369913331726E-004	0	5.7071043E-006	14	0	5.5363671E-007	9.2909719E+005
2	1	0	1	0	3.372709914798179E+001	7.1407455E-001	7.1415907E-001	7.666982850489624E-004	0	5.7535995E-006	14	0	5.4754452E-007	9.3147344E+005
2	1	0	1	0	3.378869914642564E+001	7.1099460E-001	7.1108896E-001	7.653422031758950E-004	0	5.7998000E-006	14	0	5.4422640E-007	9.2911244E+005
2	1	0	1	0	3.385009914487455E+001	7.0792454E-001	7.0798707E-001	7.602107687018269E-004	0	5.8455439E-006	14	0	5.3821941E-007	9.3130369E+005
2	1	0	1	0	3.391169914331840E+001	7.0484459E-001	7.0495176E-001	7.560292139546504E-004	0	5.8912024E-006	14	0	5.3296412E-007	9.3243988E+005
2	1	0	1	0	3.397329914176225E+001	7.0176464E-001	7.0183212E-001	7.512112812683575E-004	0	5.9366589E-006	14	0	5.2722419E-007	9.3426725E+005
2	1	0	1	0	3.403489914020611E+001	6.9868451E-001	6.9871604E-001	7.464422988905128E-004	0	5.9818844E-006	14	0	5.2155121E-007	9.3606169E+005
2	1	0	1	0	3.409649913864996E+001	6.9560456E-001	6.9562811E-001	7.413190669888405E-004	0	6.0268626E-006	14	0	5.1568236E-007	9.3836531E+005
2	1	0	1	0	3.415789913709887E+001	6.9253457E-001	6.9260091E-001	7.391816297123432E-004	0	6.0714401E-006	14	0	5.1195786E-007	9.3698338E+005
2	1	0	1	0	3.421949913554272E+001	6.8945456E-001	6.8952227E-001	7.371870634725296E-004	0	6.1159462E-006	14	0	5.0830687E-007	9.3534231E+005
2	1	0	1	0	3.428109913398657E+001	6.8637455E-001	6.8645668E-001	7.364226055247999E-004	0	6.1603373E-006	14	0	5.0552222E-007	9.3215050E+005
2	1	0	1	0	3.434269913243043E+001	6.8329453E-001	6.8334389E-001	7.340573853757337E-004	0	6.2045710E-006	14	0	5.0161361E-007	9.3091344E+005
2	1	0	1	0	3.440419913087680E+001	6.8022013E-001	6.8031365E-001	7.317289488118165E-004	0	6.2486138E-006	14	0	4.9780522E-007	9.2973450E+005
2	1	0	1	0	3.446569912932318E+001	6.7714560E-001	6.7718565E-001	7.283225831161873E-004	0	6.2925487E-006	14	0	4.9320960E-007	9.2978806E+005
2	1	0	1	0	3.452729912776704E+001	6.7406559E-001	6.7413044E-001	7.237045111541957E-004	0	6.3363236E-006	14	0	4.8787126E-007	9.3149956E+005
2	1	0	1	0	3.458889912621089E+001	6.7098558E-001	6.7108935E-001	7.234282826893580E-004	0	6.3799312E-006	14	0	4.8548503E-007	9.2765150E+005
2	1	0	1	0	3.465049912465474E+001	6.6790563E-001	6.6793293E-001	7.198032071869555E-004	0	6.4233932E-006	14	0	4.8078027E-007	9.2793825E+005
2	1	0	1	0	3.471189912310365E+001	6.6483557E-001	6.6484886E-001	7.177188767043211E-004	0	6.4664300E-006	14	0	4.7717458E-007	9.2633606E+005
2	1	0	1	0	3.477349912154750E+001	6.6175562E-001	6.6175699E-001	7.147467168054302E-004	0	6.5094368E-006	14	0	4.7298863E-007	9.2586225E+005
2	1	0	1	0	3.483509911999136E+001	6.5867561E-001	6.5871155E-001	7.124484076246503E-004	0	6.5523163E-006	14	0	4.6929799E-007	9.2457438E+005
2	1	0	1	0	3.489669911843521E+001	6.5559554E-001	6.5562475E-001	7.122138323984867E-004	0	6.5950676E-006	14	0	4.6694501E-007	9.2054481E+005
2	1	0	1	0	3.495829911687906E+001	6.5251559E-001	6.5253252E-001	7.100578605683371E-004	0	6.6376897E-006	14	0	4.6333585E-007	9.1898500E+005
2	1	0	1	0	3.501969911532797E+001	6.4944553E-001	6.4953822E-001	7.055156818537548E-004	0	6.6800058E-006	14	0	4.5825939E-007	9.2065738E+005
2	1	0	1	0	3.508129911377182E+001	6.4636552E-001	6.4644694E-001	7.032248270936840E-004	0	6.7223095E-006	14	0	4.5459754E-007	9.1926069E+005
2	1	0	1	0	3.514289911221567E+001	6.4328551E-001	6.4331305E-001	6.992219949980231E-004	0	6.7645005E-006	14	0	4.4981863E-007	9.2004119E+005
2	1	0	1	0	3.520449911065953E+001	6.4020556E-001	6.4020717E-001	6.973960943020552E-004	0	6.8065469E-006	14	0	4.4647797E-007	9.1799650E+005
2	1	0	1	0	3.526589910910843E+001	6.3713557E-001	6.3715708E-001	6.956975315695977E-004	0	6.8482932E-006	14	0	4.4326862E-007	9.1585356E+005
2	1	0	1	0	3.532749910755228E+001	6.3405550E-001	6.3403600E-001	6.955212035841974E-004	0	6.8900504E-006	14	0	4.4098547E-007	9.1159838E+005
2	1	0	1	0	3.538909910599614E+001	6.3097554E-001	6.3101977E-001	6.952533462092902E-004	0	6.9316498E-006	14	0	4.3871862E-007	9.0761125E+005
2	1	0	1	0	3.545069910443999E+001	6.2789553E-001	6.2790102E-001	6.900644263317414E-004	0	6.9731132E-006	14	0	4.3329214E-007	9.0991650E+005
2	1	0	1	0	3.551229910288384E+001	6.2481552E-001	6.2478971E-001	6.855016494443193E-004	0	7.0143988E-006	14	0	4.2829438E-007	9.1143431E+005
2	1	0	1	0	3.557369910133275E+001	6.2174553E-001	6.2175089E-001	6.826851843713452E-004	0	7.0553269E-006	14	0	4.2446013E-007	9.1074319E+005
2	1	0	1	0	3.563529909977660E+001	6.1866552E-001	6.1865127E-001	6.786750930298825E-004	0	7.0961892E-006	14	0	4.1986320E-007	9.1155738E+005
2	1	0	1	0	3.569689909822046E+001	6.1558557E-001	6.1556721E-001	6.805649471510813E-004	0	7.1370268E-006	14	0	4.1893347E-007	9.0449444E+005
2	1	0	1	0	3.575849909666431E+001	6.1250550E-001	6.1247993E-001	6.807473030193238E-004	0	7.1778582E-006	14	0	4.1694406E-007	8.9971700E+005
2	1	0	1	0	3.581989909511321E+001	6.0943550E-001	6.0943002E-001	6.766034407995718E-004	0	7.2183670E-006	14	0	4.1234244E-007	9.0071963E+005
2	1	0	1	0	3.588149909355707E+001	6.0635549E-001	6.0635012E-001	6.752927325529247E-004	0	7.2588718E-006	14	0	4.0946384E-007	8.9790706E+005
2	1	0	1	0	3.594309909200092E+001	6.0327548E-001	6.0329527E-001	6.744936939804460E-004	0	7.2992475E-006	14	0	4.0691884E-007	8.9444169E+005
2	1	0	1	0	3.600469909044477E+001	6.0019553E-001	6.0026222E-001	6.710375119323465E-004	0	7.3394622E-006	14	0	4.0279846E-007	8.9452856E+005
2	1	0	1	0	3.606629908888863E+001	5.9711546E-001	5.9712946E-001	6.620721438478057E-004	0	7.3793640E-006	14	0	3.9534279E-007	9.0190994E+005
2	1	0	1	0	3.612769908733753E+001	5.9404552E-001	5.9407496E-001	6.622057677667572E-004	0	7.4189061E-006	14	0	3.9339986E-007	8.9711538E+005
2	1	0	1	0	3.618929908578139E+001	5.9096539E-001	5.9093499E-001	6.579576191669727E-004	0	7.4584427E-006	14	0	3.8881018E-007	8.9813531E+005
2	1	0	1	0	3.625089908422524E+001	5.8788544E-001	5.8787125E-001	6.567780041531503E-004	0	7.4978493E-006	14	0	3.8610091E-007	8.9508363E+005
2	1	0	1	0	3.631249908266909E+001	5.8480543E-001	5.8480114E-001	6.556931682072864E-004	0	7.5371167E-006	14	0	3.8345010E-007	8.9188231E+005
2	1	0	1	0	3.637389908111800E+001	5.8173543E-001	5.8170199E-001	6.534875361442448E-004	0	7.5760590E-006	14	0	3.8013499E-007	8.9015013E+005
2	1	0	1	0	3.643549907956185E+001	5.7865542E-001	5.7866591E-001	6.496312782401144E-004	0	7.6148881E-006	14	0	3.7591948E-007	8.9076056E+005
2	1	0	1	0	3.649709907800570E+001	5.7557547E-001	5.7558501E-001	6.448197359628528E-004	0	7.6534870E-006	14	0	3.7114856E-007	8.9262931E+005
2	1	0	1	0	3.655869907644956E+001	5.7249552E-001	5.7255644E-001	6.421159429630405E-004	0	7.6919450E-006	14	0	3.6764763E-007	8.9167144E+005
2	1	0	1	0	3.662029907489341E+001	5.6941539E-001	5.6947899E-001	6.380729441343713E-004	0	7.7302302E-006	14	0	3.6336914E-007	8.9249825E+005
2	1	0	1	0	3.668169907334232E+001	5.6634545E-001	5.6638306E-001	6.341241672817195E-004	0	7.7681780E-006	14	0	3.5915718E-007	8.9317375E+005
2	1	0	1	0	3.674329907178617E+001	5.6326544E-001	5.6328988E-001	6.305977021970092E-004	0	7.8060039E-006	14	0	3.5520929E-007	8.9326344E+005
2	1	0	1	0	3.680489907023002E+001	5.6018543E-001	5.6019813E-001	6.259268120845469E-004	0	7.8435232E-006	14	0	3.5064303E-007	8.9498981E+005
2	1	0	1	0	3.686649906867387E+001	5.5710542E-001	5.5713171E-001	6.227715908646691E-004	0	7.8807798E-006	14	0	3.4696581E-007	8.9460038E+005
2	1	0	1	0	3.692789906712278E+001	5.5403543E-001	5.5403256E-001	6.216453319446251E-004	0	7.9177462E-006	14	0	3.4441175E-007	8.9123581E+005
2	1	0	1	0	3.698949906556663E+001	5.5095541E-001	5.5098569E-001	6.173278272071907E-004	0	7.9546353E-006	14	0	3.4013880E-007	8.9253338E+005
2	1	0	1	0	3.705109906401049E+001	5.4787534E-001	5.4785955E-001	6.146122389401034E-004	0	7.9912625E-006	14	0	3.3672117E-007	8.9139056E+005
2	1	0	1	0	3.711269906245434E+001	5.4479539E-001	5.4475856E-001	6.046425562320177E-004	0	8.0275395E-006	14	0	3.2938422E-007	9.0095969E+005
2	1	0	1	0	3.717429906089819E+001	5.4171538E-001	5.4164809E-001	5.996448137800224E-004	0	8.0634209E-006	14	0	3.2479647E-007	9.0328156E+005
2	1	0	1	0	3.723569905934710E+001	5.3864539E-001	5.3862101E-001	5.941857155155970E-004	0	8.0988757E-006	14	0	3.2004090E-007	9.0648594E+005
2	1	0	1	0	3.729729905779095E+001	5.3556538E-001	5.3547990E-001	5.891946143118058E-004	0	8.1340904E-006	14	0	3.1550186E-007	9.0883369E+005
2	1	0	1	0	3.735889905623480E+001	5.3248537E-001	5.3248346E-001	5.835505938790921E-004	0	8.1688922E-006	14	0	3.1073102E-007	9.1248894E+005
2	1	0	1	0	3.742049905467866E+001	5.2940536E-001	5.2943438E-001	5.776487403676579E-004	0	8.2032939E-006	14	0	3.0582711E-007	9.1653344E+005
2	1	0	1	0	3.748189905312756E+001	5.2633530E-001	5.2632135E-001	5.681749643874634E-004	0	8.2371143E-006	14	0	2.9904263E-007	9.2633675E+005
2	1	0	1	0	3.754349905157142E+001	5.2325535E-001	5.2327037E-001	5.573256943652832E-004	0	8.2705619E-006	14	0	2.9163203E-007	9.3889513E+005
2	1	0	1	0	3.760509905001527E+001	5.2017534E-001	5.2016401E-001	5.482620767232717E-004	0	8.3033765E-006	14	0	2.8518619E-007	9.4875069E+005
2	1	0	1	0	3.766669904845912E+001	5.1709533E-001	5.1708603E-001	5.373782475643709E-004	0	8.3355444E-006	14	0	2.7787078E-007	9.6223850E+005
2	1	0	1	0	3.772829904690298E+001	5.1401538E-001	5.1395714E-001	5.292841932205243E-004	0	8.3671748E-006	14	0	2.7202938E-007	9.7104194E+005
2	1	0	1	0	3.778969904535188E+001	5.1094532E-001	5.1086545E-001	5.189117400031910E-004	0	8.3980676E-006	14	0	2.6509409E-007	9.8449394E+005
2	1	0	1	0	3.785129904379573E+001	5.0786537E-001	5.0777996E-001	5.060738743335365E-004	0	8.4283101E-006	14	0	2.5697418E-007	1.0033712E+006
2	1	0	1	0	3.791289904223959E+001	5.0478530E-001	5.0471836E-001	4.923048466493997E-004	0	8.4577168E-006	14	0	2.4847529E-007	1.0252151E+006
2	1	0	1	0	3.797449904068344E+001	5.0170529E-001	5.0165248E-001	4.775004365717161E-004	0	8.4862431E-006	14	0	2.3953928E-007	1.0505801E+006
2	1	0	1	0	3.803589903913235E+001	4.9863532E-001	4.9857134E-001	4.638125165832372E-004	0	8.5138054E-006	14	0	2.3124363E-007	1.0749415E+006
2	1	0	1	0	3.809749903757620E+001	4.9555534E-001	4.9544725E-001	4.452391549310034E-004	0	8.5403462E-006	14	0	2.2059251E-007	1.1127666E+006
2	1	0	1	0	3.815909903602005E+001	4.9247530E-001	4.9238670E-001	4.244631048841824E-004	0	8.5657775E-006	14	0	2.0899999E-007	1.1600224E+006
2	1	0	1	0	3.822069903446391E+001	4.8939526E-001	4.8934928E-001	4.039451149118658E-004	0	8.5900001E-006	14	0	1.9767025E-007	1.2114251E+006
2	1	0	1	0	3.828229903290776E+001	4.8631531E-001	4.8622733E-001	3.791996577725734E-004	0	8.6128557E-006	14	0	1.8437724E-007	1.2822463E+006
2	1	0	1	0	3.834369903135666E+001	4.8324522E-001	4.8315638E-001	3.559748796384023E-004	0	8.6341497E-006	14	0	1.7199153E-007	1.3572766E+006
2	1	0	1	0	3.840529902980052E+001	4.8016527E-001	4.8006770E-001	3.298593400396718E-004	0	8.6538184E-006	14	0	1.5835481E-007	1.4553710E+006
2	1	0	1	0	3.846689902824437E+001	4.7708529E-001	4.7699681E-001	2.985829418604919E-004	0	8.6716791E-006	14	0	1.4242310E-007	1.5975354E+006
2	1	0	1	0	3.852849902668822E+001	4.7400528E-001	4.7397837E-001	2.671296801970680E-004	0	8.6875261E-006	14	0	1.2661368E-007	1.7743381E+006
2	1	0	1	0	3.858989902513713E+001	4.7093529E-001	4.7075826E-001	2.266776937550094E-004	0	8.7011158E-006	14	0	1.0671040E-007	2.0767736E+006
2	1	0	1	0	3.865149902358098E+001	4.6785522E-001	4.6774769E-001	1.837820527381996E-004	0	8.7123126E-006	14	0	8.5963627E-008	2.5451218E+006
2	1	0	1	0	3.871309902202484E+001	4.6477526E-001	4.6467152E-001	1.380128815109724E-004	0	8.7208391E-006	14	0	6.4130653E-008	3.3668708E+006
2	1	0	1	0	3.877469902046869E+001	4.6169522E-001	4.6163961E-001	8.775934632394562E-005	0	8.7264025E-006	14	0	4.0513189E-008	5.2602900E+006
2	1	0	1	0	3.883629901891254E+001	4.5861521E-001	4.5848882E-001	3.414602179856012E-005	0	8.7286298E-006	14	0	1.5655569E-008	1.3427298E+007
2	1	0	1	0	3.889769901736145E+001	4.5554522E-001	4.5537367E-001	-2.862687982812081E-005	0	8.7272301E-006	14	0	-1.3035928E-008	1.5907206E+007
2	0	0	1	0	3.895929901580530E+001	4.5246524E-001	4.5236433E-001	-9.540424255176936E-005	0	8.7218259E-006	14	0	-4.3157478E-008	4.7415535E+006
2	0	0	1	0	3.902089901424915E+001	4.4938523E-001	4.4928589E-001	-1.701390646011848E-004	0	8.7120079E-006	14	0	-7.6441083E-008	2.6406980E+006
2	0	0	1	0	3.908249901269301E+001	4.4630519E-001	4.4613186E-001	-2.519798530834444E-004	0	8.6972586E-006	14	0	-1.1241624E-007	1.7705060E+006
2	0	0	1	0	3.914389901114191E+001	4.4323522E-001	4.4314414E-001	-3.456061807578923E-004	0	8.6771088E-006	14	0	-1.5315335E-007	1.2822229E+006
2	0	0	1	0	3.920549900958576E+001	4.4015518E-001	4.4002807E-001	-4.449744877308832E-004	0	8.6509144E-006	14	0	-1.9580126E-007	9.8888381E+005
2	0	0	1	0	3.926709900802962E+001	4.3707520E-001	4.3695918E-001	-5.600446904108613E-004	0	8.6180144E-006	14	0	-2.4471666E-007	7.8022200E+005
2	0	0	1	0	3.932869900647347E+001	4.3399522E-001	4.3381077E-001	-6.833260925858406E-004	0	8.5777065E-006	14	0	-2.9643422E-007	6.3485175E+005
2	0	0	1	0	3.939029900491732E+001	4.3091515E-001	4.3077752E-001	-8.211919098310254E-004	0	8.5292531E-006	14	0	-3.5375101E-007	5.2457594E+005
2	0	0	1	0	3.945169900336623E+001	4.2784515E-001	4.2764390E-001	-9.752989736805089E-004	0	8.4719668E-006	14	0	-4.1708066E-007	4.3847466E+005
2	0	0	1	0	3.951329900181008E+001	4.2476514E-001	4.2459381E-001	-1.140748019193260E-003	0	8.4046242E-006	14	0	-4.8435453E-007	3.7220647E+005
2	0	0	1	0	3.957489900025394E+001	4.2168519E-001	4.2146116E-001	-1.325423297201866E-003	0	8.3263867E-006	14	0	-5.5861443E-007	3.1798231E+005
2	0	0	1	0	3.963649899869779E+001	4.1860515E-001	4.1840845E-001	-1.531560499871427E-003	0	8.2360148E-006	14	0	-6.4081786E-007	2.7319094E+005
2	0	0	1	0	3.969789899714669E+001	4.1553515E-001	4.1532597E-001	-1.753538336183379E-003	0	8.1326152E-006	14	0	-7.2828999E-007	2.3685023E+005
2	0	0	1	0	3.975949899559055E+001	4.1245517E-001	4.1223589E-001	-1.999913293208068E-003	0	8.0143200E-006	14	0	-8.2443603E-007	2.0612688E+005
2	0	0	1	0	3.982109899403440E+001	4.0937510E-001	4.0922835E-001	-2.276843298442514E-003	0	7.8797930E-006	14	0	-9.3174884E-007	1.7973497E+005
2	0	0	1	0	3.988269899247825E+001	4.0629515E-001	4.0612519E-001	-2.580030387532163E-003	0	7.7271679E-006	14	0	-1.0478153E-006	1.5741102E+005
2	0	0	1	0	3.994429899092211E+001	4.0321514E-001	4.0306398E-001	-2.913332189289519E-003	0	7.5548151E-006	14	0	-1.1742593E-006	1.3835153E+005
2	0	0	1	0	4.000569898937101E+001	4.0014511E-001	3.9994025E-001	-3.273315180335579E-003	0	7.3615402E-006	14	0	-1.3091305E-006	1.2218202E+005
2	0	0	1	0	4.006729898781487E+001	3.9706510E-001	3.9687136E-001	-3.676406120755778E-003	0	7.1439763E-006	14	0	-1.4590603E-006	1.0795091E+005
2	0	0	1	0	4.012889898625872E+001	3.9398509E-001	3.9377707E-001	-4.121956459798612E-003	0	6.9000598E-006	14	0	-1.6231320E-006	9.5531594E+004
2	0	0	1	0	4.019049898470257E+001	3.9090514E-001	3.9062724E-001	-4.613421560529976E-003	0	6.6270354E-006	14	0	-1.8021281E-006	8.4671914E+004
2	0	0	1	0	4.025189898315148E+001	3.8783506E-001	3.8755655E-001	-5.150667805182932E-003	0	6.3231560E-006	14	0	-1.9961751E-006	7.5243945E+004
2	0	0	1	0	4.031349898159533E+001	3.8475507E-001	3.8449839E-001	-5.733547376993157E-003	0	5.9834997E-006	14	0	-2.2045397E-006	6.7061172E+004
2	0	0	1	0	4.037509898003918E+001	3.8167509E-001	3.8139024E-001	-6.374145447616268E-003	0	5.6058557E-006	14	0	-2.4310368E-006	5.9833941E+004
2	0	0	1	0	4.043669897848304E+001	3.7859508E-001	3.7828714E-001	-7.074173094025473E-003	0	5.1865936E-006	14	0	-2.6760688E-006	5.3474395E+004
2	0	0	1	0	4.049829897692689E+001	3.7551507E-001	3.7525758E-001	-7.829983902673268E-003	0	4.7221456E-006	14	0	-2.9382609E-006	4.7925715E+004
2	0	0	1	0	4.055969897537580E+001	3.7244508E-001	3.7218899E-001	-8.672611591270973E-003	0	4.2098900E-006	14	0	-3.2278506E-006	4.2915445E+004
2	0	0	1	0	4.062129897381965E+001	3.6936510E-001	3.6910844E-001	-9.589654593890745E-003	0	3.6413887E-006	14	0	-3.5396224E-006	3.8490273E+004
2	0	0	1	0	4.069829897187446E+001	3.6551535E-001	3.6523727E-001	-1.083930655646569E-002	0	2.8364595E-006	14	0	-3.9589186E-006	3.3695629E+004
2	0	0	1	0	4.077529896992928E+001	3.6166504E-001	3.6139157E-001	-1.219820275638422E-002	0	1.9486395E-006	13	0	-4.4083276E-006	2.9626625E+004
2	0	0	1	0	4.083669896837819E+001	3.5859507E-001	3.5828620E-001	-1.343133309261470E-002	0	1.1534687E-006	13	0	-4.8122615E-006	2.6675402E+004
2	0	0	1	0	4.089829896682204E+001	3.5551506E-001	3.5521933E-001	-1.475639180926690E-002	0	2.7652652E-007	13	0	-5.2417558E-006	2.4072234E+004
2	0	0	1	0	4.095989896526589E+001	3.5243502E-001	3.5213920E-001	-1.620448964285270E-002	0	-6.8639719E-007	13	0	-5.7062362E-006	2.1730965E+004
2	0	0	1	0	4.102149896370975E+001	3.4935504E-001	3.4905177E-001	-1.778029249879984E-002	0	-1.7427802E-006	13	0	-6.2062427E-006	1.9631385E+004
2	0	0	1	0	4.108289896215865E+001	3.4628505E-001	3.4600994E-001	-1.943637537058518E-002	0	-2.8954476E-006	13	0	-6.7251790E-006	1.7802184E+004
2	0	0	1	0	4.114449896060250E+001	3.4320506E-001	3.4290034E-001	-2.125866164872635E-002	0	-4.1593362E-006	13	0	-7.2896023E-006	1.6129912E+004
2	0	0	1	0	4.120609895904636E+001	3.4012499E-001	3.3984753E-001	-2.322859786571663E-002	0	-5.5404071E-006	13	0	-7.8941821E-006	1.4630566E+004
2	0	0	1	0	4.126769895749021E+001	3.3704501E-001	3.3670852E-001	-2.533004251200672E-002	0	-7.0476131E-006	13	0	-8.5288411E-006	1.3292853E+004
2	0	0	1	0	4.132929895593406E+001	3.3396503E-001	3.3366272E-001	-2.754566640109104E-002	0	-8.6881828E-006	13	0	-9.1909624E-006	1.2113075E+004
2	0	0	1	0	4.139069895438297E+001	3.3089498E-001	3.3063149E-001	-2.992195113008003E-002	0	-1.0465079E-005	13	0	-9.8931396E-006	1.1049797E+004
2	0	0	1	0	4.145229895282682E+001	3.2781497E-001	3.2750326E-001	-3.249240578659773E-002	0	-1.2401013E-005	13	0	-1.0641369E-005	1.0079379E+004
2	0	0	1	0	4.151389895127068E+001	3.2473499E-001	3.2443520E-001	-3.520209016478099E-002	0	-1.4499809E-005	13	0	-1.1420797E-005	9.2163623E+003
2	0	0	1	0	4.157549894971453E+001	3.2165498E-001	3.2138661E-001	-3.809485061359386E-002	0	-1.6771846E-005	13	0	-1.2243175E-005	8.4364844E+003
2	0	0	1	0	4.163689894816343E+001	3.1858498E-001	3.1828266E-001	-4.120158434537949E-002	0	-1.9221374E-005	13	0	-1.3113750E-005	7.7250103E+003
2	0	0	1	0	4.169849894660729E+001	3.1550497E-001	3.1521505E-001	-4.443129330643902E-002	0	-2.1874594E-005	13	0	-1.4005413E-005	7.0944380E+003
2	0	0	1	0	4.176009894505114E+001	3.1242499E-001	3.1210157E-001	-4.782971430046173E-002	0	-2.4732817E-005	13	0	-1.4927729E-005	6.5252651E+003
2	0	0	1	0	4.182169894349499E+001	3.0934495E-001	3.0902401E-001	-5.151466660227803E-002	0	-2.7809720E-005	13	0	-1.5919268E-005	5.9987578E+003
2	0	0	1	0	4.188329894193885E+001	3.0626500E-001	3.0596146E-001	-5.529089105108653E-002	0	-3.1117310E-005	13	0	-1.6916882E-005	5.5336685E+003
2	0	0	1	0	4.194469894038775E+001	3.0319494E-001	3.0285716E-001	-5.925252035599460E-002	0	-3.4652330E-005	13	0	-1.7945051E-005	5.1112959E+003
2	0	0	1	0	4.200629893883161E+001	3.0011493E-001	2.9976255E-001	-6.338641840931886E-002	0	-3.8448477E-005	13	0	-1.9000874E-005	4.7291289E+003
2	0	0	1	0	4.206789893727546E+001	2.9703492E-001	2.9668811E-001	-6.767001669328454E-002	0	-4.2504904E-005	13	0	-2.0076890E-005	4.3843364E+003
2	0	0	1	0	4.212949893571931E+001	2.9395494E-001	2.9364154E-001	-7.209607040268140E-002	0	-4.6829704E-005	13	0	-2.1170401E-005	4.0729202E+003
2	0	0	1	0	4.219089893416822E+001	2.9088497E-001	2.9063028E-001	-7.668803251602663E-002	0	-5.1418228E-005	13	0	-2.2287864E-005	3.7897737E+003
2	0	0	1	0	4.225249893261207E+001	2.8780490E-001	2.8751788E-001	-8.153344210672286E-002	0	-5.6313460E-005	13	0	-2.3442322E-005	3.5263796E+003
2	0	0	1	0	4.231409893105592E+001	2.8472495E-001	2.8436518E-001	-8.648907622533453E-002	0	-6.1510647E-005	13	0	-2.4594481E-005	3.2878740E+003
2	0	0	1	0	4.237569892949978E+001	2.8164491E-001	2.8135642E-001	-9.151930122980345E-002	0	-6.7015935E-005	13	0	-2.5749543E-005	3.0742852E+003
2	0	0	1	0	4.243729892794363E+001	2.7856490E-001	2.7824202E-001	-9.673730478805642E-002	0	-7.2837720E-005	13	0	-2.6916383E-005	2.8762639E+003
2	0	0	1	0	4.249869892639254E+001	2.7549490E-001	2.7517593E-001	-1.020619546410511E-001	0	-7.8964702E-005	13	0	-2.8084993E-005	2.6961655E+003
2	0	0	1	0	4.257259892452566E+001	2.7179977E-001	2.7148622E-001	-1.083444910033364E-001	0	-8.6803710E-005	13	0	-2.9414037E-005	2.5057686E+003
2	0	0	1	0	4.264649892265879E+001	2.6810491E-001	2.6777208E-001	-1.147670044910494E-001	0	-9.5040719E-005	12	0	-3.0731400E-005	2.3331799E+003
2	0	0	1	0	4.270809892110265E+001	2.6502487E-001	2.6467252E-001	-1.204214798868375E-001	0	-1.0231072E-004	12	0	-3.1872256E-005	2.1978845E+003
2	0	0	1	0	4.276969891954650E+001	2.6194486E-001	2.6160255E-001	-1.259282670634147E-001	0	-1.0992464E-004	12	0	-3.2943157E-005	2.0773933E+003
2	0	0	1	0	4.283109891799540E+001	2.5887489E-001	2.5851583E-001	-1.315606058111869E-001	0	-1.1785664E-004	12	0	-3.4010500E-005	1.9649943E+003
2	0	0	1	0	4.289269891643926E+001	2.5579485E-001	2.5545114E-001	-1.371724936950713E-001	0	-1.2616091E-004	12	0	-3.5040870E-005	1.8622622E+003
2	0	0	1	0	4.295429891488311E+001	2.5271487E-001	2.5240636E-001	-1.428184334284925E-001	0	-1.3481220E-004	12	0	-3.6048281E-005	1.7673234E+003
2	0	0	1	0	4.301589891332696E+001	2.4963485E-001	2.4931094E-001	-1.485660578352368E-001	0	-1.4381511E-004	12	0	-3.7039143E-005	1.6781151E+003
2	0	0	1	0	4.307729891177587E+001	2.4656487E-001	2.4626149E-001	-1.541225772921314E-001	0	-1.5313519E-004	12	0	-3.7954454E-005	1.5978289E+003
2	0	0	1	0	4.313889891021972E+001	2.4348484E-001	2.4316804E-001	-1.597485592522019E-001	0	-1.6283090E-004	12	0	-3.8845745E-005	1.5221924E+003
2	0	0	1	0	4.320049890866358E+001	2.4040486E-001	2.4007811E-001	-1.652745457519804E-001	0	-1.7286986E-004	12	0	-3.9678798E-005	1.4526018E+003
2	0	0	1	0	4.326209890710743E+001	2.3732485E-001	2.3697594E-001	-1.705339224650775E-001	0	-1.8324063E-004	12	0	-4.0412437E-005	1.3896117E+003
2	0	0	1	0	4.332369890555128E+001	2.3424482E-001	2.3388061E-001	-1.759887588246105E-001	0	-1.9394243E-004	12	0	-4.1160358E-005	1.3289520E+003
2	0	0	1	0	4.338509890400019E+001	2.3117484E-001	2.3078580E-001	-1.812779422483095E-001	0	-2.0493873E-004	12	0	-4.1836374E-005	1.2731047E+003
2	0	0	1	0	4.344669890244404E+001	2.2809482E-001	2.2775696E-001	-1.866013161655857E-001	0	-2.1629801E-004	12	0	-4.2499749E-005	1.2205538E+003
2	0	0	1	0	4.350829890088789E+001	2.2501479E-001	2.2467016E-001	-1.918402798673644E-001	0	-2.2798263E-004	12	0	-4.3100787E-005	1.1711313E+003
2	0	0	1	0	4.356989889933175E+001	2.2193481E-001	2.2157449E-001	-1.968589356587289E-001	0	-2.3998188E-004	12	0	-4.3618918E-005	1.1255496E+003
2	0	0	1	0	4.363129889778065E+001	2.1886481E-001	2.1848047E-001	-2.018676991613363E-001	0	-2.5225119E-004	12	0	-4.4104148E-005	1.0822953E+003
2	0	0	1	0	4.369289889622451E+001	2.1578480E-001	2.1541600E-001	-2.068138538435351E-001	0	-2.6486604E-004	12	0	-4.4551012E-005	1.0415936E+003
2	0	0	1	0	4.375449889466836E+001	2.1270478E-001	2.1233350E-001	-2.115915420613262E-001	0	-2.7778014E-004	12	0	-4.4927972E-005	1.0035065E+003
2	0	0	1	0	4.381609889311221E+001	2.0962480E-001	2.0926642E-001	-2.162270722744895E-001	0	-2.9098452E-004	12	0	-4.5249068E-005	9.6780859E+002
2	0	0	1	0	4.387769889155607E+001	2.0654479E-001	2.0620055E-001	-2.205403569999949E-001	0	-3.0446390E-004	12	0	-4.5475543E-005	9.3497876E+002
2	0	0	1	0	4.393909889000497E+001	2.0347477E-001	2.0312680E-001	-2.249392823359218E-001	0	-3.1816706E-004	12	0	-4.5691198E-005	9.0302948E+002
2	0	0	1	0	4.400069888844882E+001	2.0039478E-001	2.0005159E-001	-2.294554833005440E-001	0	-3.3218981E-004	12	0	-4.5902936E-005	8.7185358E+002
2	0	0	1	0	4.406229888689268E+001	1.9731478E-001	1.9698890E-001	-2.337563487165250E-001	0	-3.4648314E-004	12	0	-4.6047404E-005	8.4271033E+002
2	0	0	1	0	4.412389888533653E+001	1.9423588E-001	1.9387220E-001	-2.376651051715373E-001	0	-3.6103014E-004	12	0	-4.6076657E-005	8.1573694E+002
2	0	0	1	0	4.418539888378291E+001	1.9116031E-001	1.9080140E-001	-2.414935088260747E-001	0	-3.7578942E-004	12	0	-4.6077297E-005	7.9008911E+002
2	0	0	1	0	4.424689888222929E+001	1.8808585E-001	1.8771249E-001	-2.453742876796827E-001	0	-3.9078618E-004	12	0	-4.6059820E-005	7.6500470E+002
2	0	0	1	0	4.430849888067314E+001	1.8500586E-001	1.8464127E-001	-2.491182896876487E-001	0	-4.0604232E-004	12	0	-4.5997516E-005	7.4117914E+002
2	0	0	1	0	4.437009887911699E+001	1.8192585E-001	1.8156378E-001	-2.526671907949534E-001	0	-4.2152251E-004	12	0	-4.5875211E-005	7.1858868E+002
2	0	0	1	0	4.443169887756085E+001	1.7884587E-001	1.7847158E-001	-2.560485324554507E-001	0	-4.3721616E-004	12	0	-4.5697387E-005	6.9702246E+002
2	0	0	1	0	4.449309887600975E+001	1.7577584E-001	1.7537101E-001	-2.593689341160506E-001	0	-4.5306425E-004	12	0	-4.5485791E-005	6.7614502E+002
2	0	0	1	0	4.455469887445361E+001	1.7269585E-001	1.7231698E-001	-2.623765413223342E-001	0	-4.6915817E-004	12	0	-4.5211935E-005	6.5675452E+002
2	0	0	1	0	4.461629887289746E+001	1.6961582E-001	1.6924302E-001	-2.653827675231577E-001	0	-4.8543629E-004	12	0	-4.4914181E-005	6.3773175E+002
2	0	0	1	0	4.467789887134131E+001	1.6653581E-001	1.6616085E-001	-2.686956231977520E-001	0	-5.0190999E-004	12	0	-4.4646695E-005	6.1839807E+002
2	0	0	1	0	4.473949886978517E+001	1.6345583E-001	1.6310585E-001	-2.713914835852775E-001	0	-5.1856739E-004	12	0	-4.4265536E-005	6.0099841E+002
2	0	0	1	0	4.480089886823407E+001	1.6038582E-001	1.5998745E-001	-2.744649421548226E-001	0	-5.3534767E-004	12	0	-4.3910946E-005	5.8290668E+002
2	0	0	1	0	4.486249886667792E+001	1.5730582E-001	1.5692300E-001	-2.773082878885389E-001	0	-5.5236474E-004	12	0	-4.3516047E-005	5.6587921E+002
2	0	0	1	0	4.492409886512178E+001	1.5422580E-001	1.5386569E-001	-2.799369991045303E-001	0	-5.6955114E-004	12	0	-4.3072701E-005	5.4964398E+002
2	0	0	1	0	4.498569886356563E+001	1.5114579E-001	1.5079884E-001	-2.820715480082372E-001	0	-5.8688305E-004	12	0	-4.2536063E-005	5.3461200E+002
2	0	0	1	0	4.504709886201454E+001	1.4807579E-001	1.4770824E-001	-2.847298321658540E-001	0	-6.0430478E-004	12	0	-4.2056941E-005	5.1876630E+002
2	0	0	1	0	4.510869886045839E+001	1.4499578E-001	1.4462523E-001	-2.872989811788993E-001	0	-6.2194525E-004	12	0	-4.1550680E-005	5.0339627E+002
2	0	0	1	0	4.517029885890224E+001	1.4191578E-001	1.4152567E-001	-2.894925034190141E-001	0	-6.3973147E-004	12	0	-4.0970619E-005	4.8887509E+002
2	0	0	1	0	4.523189885734610E+001	1.3883577E-001	1.3846517E-001	-2.914794749918936E-001	0	-6.5764558E-004	12	0	-4.0359755E-005	4.7504260E+002
2	0	0	1	0	4.529349885578995E+001	1.3575578E-001	1.3536087E-001	-2.939281385922214E-001	0	-6.7569630E-004	12	0	-3.9786366E-005	4.6052368E+002
2	0	0	1	0	4.535489885423885E+001	1.3268577E-001	1.3230127E-001	-2.960107554721798E-001	0	-6.9382781E-004	12	0	-3.9162598E-005	4.4694751E+002
2	0	0	1	0	4.541649885268271E+001	1.2960576E-001	1.2923720E-001	-2.980322637166326E-001	0	-7.1214460E-004	12	0	-3.8516857E-005	4.3363495E+002
2	0	0	1	0	4.547809885112656E+001	1.2652574E-001	1.2613134E-001	-2.998324891760786E-001	0	-7.3057826E-004	12	0	-3.7818274E-005	4.2067270E+002
2	0	0	1	0	4.553969884957041E+001	1.2344575E-001	1.2306859E-001	-3.017538939083142E-001	0	-7.4912672E-004	12	0	-3.7136426E-005	4.0784424E+002
2	0	0	1	0	4.560109884801932E+001	1.2037574E-001	1.2001828E-001	-3.037826879281109E-001	0	-7.6773658E-004	12	0	-3.6459474E-005	3.9507941E+002
2	0	0	1	0	4.566269884646317E+001	1.1729574E-001	1.1687101E-001	-3.056931285138607E-001	0	-7.8652735E-004	12	0	-3.5726665E-005	3.8231479E+002
2	0	0	1	0	4.572429884490703E+001	1.1421573E-001	1.1384106E-001	-3.073120646419518E-001	0	-8.0542651E-004	12	0	-3.4984729E-005	3.7044122E+002
2	0	0	1	0	4.578589884335088E+001	1.1113571E-001	1.1073183E-001	-3.094453498754103E-001	0	-8.2444079E-004	12	0	-3.4265449E-005	3.5783969E+002
2	0	0	1	0	4.584749884179473E+001	1.0805571E-001	1.0768183E-001	-3.115106874664137E-001	0	-8.4358477E-004	12	0	-3.3544038E-005	3.4567618E+002
2	0	0	1	0	4.590889884024364E+001	1.0498571E-001	1.0459742E-001	-3.127670848286142E-001	0	-8.6276868E-004	12	0	-3.2714630E-005	3.3442590E+002
2	0	0	1	0	4.597049883868749E+001	1.0190571E-001	1.0150306E-001	-3.136908646765186E-001	0	-8.8207924E-004	12	0	-3.1840584E-005	3.2357672E+002
2	0	0	1	0	4.603209883713134E+001	9.8825708E-002	9.8453008E-002	-3.150580073078721E-001	0	-9.0146367E-004	12	0	-3.1018408E-005	3.1249170E+002
2	0	0	1	0	4.609369883557520E+001	9.5745698E-002	9.5358752E-002	-3.161010892022045E-001	0	-9.2091877E-004	12	0	-3.0143005E-005	3.0167169E+002
2	0	0	1	0	4.615509883402410E+001	9.2675693E-002	9.2285328E-002	-3.178675007149714E-001	0	-9.4039954E-004	12	0	-2.9334506E-005	2.9032642E+002
2	0	0	1	0	4.621669883246796E+001	8.9595690E-002	8.9213938E-002	-3.196068784798385E-001	0	-9.6005073E-004	12	0	-2.8513388E-005	2.7913647E+002
2	0	0	1	0	4.627829883091181E+001	8.6515695E-002	8.6155459E-002	-3.208077693038831E-001	0	-9.7979116E-004	12	0	-2.7639340E-005	2.6855789E+002
2	0	0	1	0	4.633989882935566E+001	8.3435677E-002	8.3053581E-002	-3.221669571912553E-001	0	-9.9961169E-004	12	0	-2.6757119E-005	2.5779672E+002
2	0	0	1	0	4.640149882779951E+001	8.0355674E-002	7.9993047E-002	-3.228422269017326E-001	0	-1.0194925E-003	12	0	-2.5825133E-005	2.4777753E+002
2	0	0	1	0	4.646289882624842E+001	7.7285662E-002	7.6879285E-002	-3.244479195637000E-001	0	-1.0393814E-003	12	0	-2.4943323E-005	2.3695416E+002
2	0	0	1	0	4.652449882469227E+001	7.4205659E-002	7.3779449E-002	-3.256428440790051E-001	0	-1.0594209E-003	12	0	-2.4025750E-005	2.2656555E+002
2	0	0	1	0	4.658609882313613E+001	7.1125656E-002	7.0727304E-002	-3.261738529806362E-001	0	-1.0795123E-003	12	0	-2.3069397E-005	2.1683928E+002
2	0	0	1	0	4.664769882157998E+001	6.8045653E-002	6.7630082E-002	-3.272522527372272E-001	0	-1.0996526E-003	12	0	-2.2132097E-005	2.0666040E+002
2	0	0	1	0	4.670909882002888E+001	6.4975649E-002	6.4539917E-002	-3.288578642939215E-001	0	-1.1198109E-003	12	0	-2.1224459E-005	1.9625475E+002
2	0	0	1	0	4.677069881847274E+001	6.1895642E-002	6.1463602E-002	-3.298747686662526E-001	0	-1.1401161E-003	12	0	-2.0275291E-005	1.8632405E+002
2	0	0	1	0	4.683229881691659E+001	5.8815636E-002	5.8402438E-002	-3.302165280538925E-001	0	-1.1604603E-003	12	0	-1.9285450E-005	1.7686104E+002
2	0	0	1	0	4.689389881536044E+001	5.5735629E-002	5.5334207E-002	-3.313872470057584E-001	0	-1.1808510E-003	12	0	-1.8337050E-005	1.6697748E+002
2	0	0	1	0	4.695549881380430E+001	5.2655622E-002	5.2214425E-002	-3.326992712188708E-001	0	-1.2013197E-003	12	0	-1.7371702E-005	1.5694180E+002
2	0	0	1	0	4.701689881225320E+001	4.9585618E-002	4.9186330E-002	-3.334159112492676E-001	0	-1.2217847E-003	12	0	-1.6399505E-005	1.4752245E+002
2	0	0	1	0	4.707849881069706E+001	4.6505611E-002	4.6082489E-002	-3.330643284997352E-001	0	-1.2423247E-003	12	0	-1.5348432E-005	1.3835913E+002
2	0	0	1	0	4.714009880914091E+001	4.3425605E-002	4.3006726E-002	-3.339916692327818E-001	0	-1.2628819E-003	12	0	-1.4363888E-005	1.2876587E+002
2	0	0	1	0	4.720169880758476E+001	4.0345598E-002	3.9957132E-002	-3.360754838850208E-001	0	-1.2835355E-003	12	0	-1.3428613E-005	1.1889333E+002
2	0	0	1	0	4.726309880603367E+001	3.7275594E-002	3.6846921E-002	-3.364083827223929E-001	0	-1.3041968E-003	12	0	-1.2395613E-005	1.0953033E+002
2	0	0	1	0	4.732469880447752E+001	3.4195591E-002	3.3776116E-002	-3.359246640295970E-001	0	-1.3249151E-003	12	0	-1.1346230E-005	1.0054670E+002
2	0	0	1	0	4.738629880292137E+001	3.1115586E-002	3.0703999E-002	-3.366934479483712E-001	0	-1.3456426E-003	12	0	-1.0337835E-005	9.1192741E+001
2	0	0	1	0	4.744789880136523E+001	2.8035579E-002	2.7613837E-002	-3.385477794485752E-001	0	-1.3664534E-003	12	0	-9.3486033E-006	8.1565552E+001
2	0	0	1	0	4.750949879980908E+001	2.4955573E-002	2.4472697E-002	-3.392549921190895E-001	0	-1.3873444E-003	12	0	-8.3024843E-006	7.2136589E+001
2	0	0	1	0	4.757089879825799E+001	2.1885568E-002	2.1467779E-002	-3.395321633787136E-001	0	-1.4081937E-003	12	0	-7.2890016E-006	6.3227528E+001
2	0	0	1	0	4.763249879670184E+001	1.8805563E-002	1.8375447E-002	-3.403570844315533E-001	0	-1.4291476E-003	12	0	-6.2542135E-006	5.3988731E+001
2	0	0	1	0	4.769409879514569E+001	1.5725559E-002	1.5351100E-002	-3.412229691933557E-001	0	-1.4501530E-003	12	0	-5.2381479E-006	4.4988472E+001
2	0	0	1	0	4.775569879358954E+001	1.2645553E-002	1.2246333E-002	-3.419275079325335E-001	0	-1.4712050E-003	12	0	-4.1873582E-006	3.5815582E+001
2	0	0	1	0	4.781709879203845E+001	9.5755467E-003	9.1572376E-003	-3.433006039102877E-001	0	-1.4922542E-003	12	0	-3.1436853E-006	2.6674109E+001
2	0	0	1	0	4.787869879048230E+001	6.4955414E-003	6.0745464E-003	-3.439897670860947E-001	0	-1.5134333E-003	12	0	-2.0895818E-006	1.7659090E+001
2	0	0	1	0	4.794029878892616E+001	3.4155366E-003	2.9743265E-003	-3.443602918602558E-001	0	-1.5346457E-003	12	0	-1.0242400E-006	8.6372519E+000
2	0	0	1	0	4.800189878737001E+001	3.3553093E-004	-1.6732869E-004	-3.447855615867015E-001	0	-1.5558826E-003	12	0	5.7692517E-008	4.8531234E-001
2	0	0	1	0	4.806349878581386E+001	-2.7444754E-003	-3.4461345E-003	-3.456037337654961E-001	0	-1.5771573E-003	12	0	1.1909970E-006	9.9713459E+000
2	0	0	1	0	4.812489878426277E+001	-5.8144820E-003	-6.4921100E-003	-3.452406280611116E-001	0	-1.5983798E-003	12	0	2.2413401E-006	1.8804594E+001
2	0	0	1	0	4.818649878270662E+001	-8.8944901E-003	-9.5339194E-003	-3.441884488935565E-001	0	-1.6196219E-003	12	0	3.2814648E-006	2.7699707E+001
2	0	0	1	0	4.824809878115047E+001	-1.1974497E-002	-1.2666345E-002	-3.454396329482012E-001	0	-1.6408709E-003	12	0	4.3754576E-006	3.6667316E+001
2	0	0	1	0	4.830969877959433E+001	-1.5054504E-002	-1.5753133E-002	-3.466818876659277E-001	0	-1.6622021E-003	12	0	5.4613261E-006	4.5439735E+001
2	0	0	1	0	4.837109877804323E+001	-1.8124511E-002	-1.8861210E-002	-3.475023177061576E-001	0	-1.6835233E-003	12	0	6.5543140E-006	5.4276501E+001
2	0	0	1	0	4.843269877648709E+001	-2.1204518E-002	-2.1876154E-002	-3.480872418340795E-001	0	-1.7049592E-003	12	0	7.6148103E-006	6.2846756E+001
2	0	0	1	0	4.849429877493094E+001	-2.4284527E-002	-2.4917306E-002	-3.482808756724175E-001	0	-1.7264183E-003	12	0	8.6782211E-006	7.1543709E+001
2	0	0	1	0	4.855589877337479E+001	-2.7364532E-002	-2.8014909E-002	-3.486740260682921E-001	0	-1.7478943E-003	12	0	9.7680713E-006	8.0346992E+001
2	0	0	1	0	4.861749877181865E+001	-3.0444536E-002	-3.1132767E-002	-3.493427437948347E-001	0	-1.7694043E-003	12	0	1.0876006E-005	8.9118118E+001
2	0	0	1	0	4.867889877026755E+001	-3.3514544E-002	-3.4197617E-002	-3.494108477283655E-001	0	-1.7908665E-003	12	0	1.1949019E-005	9.7872223E+001
2	0	0	1	0	4.874049876871140E+001	-3.6594551E-002	-3.7245836E-002	-3.504348884646760E-001	0	-1.8124316E-003	12	0	1.3052240E-005	1.0628461E+002
2	0	0	1	0	4.880209876715526E+001	-3.9674558E-002	-4.0395204E-002	-3.503408185470365E-001	0	-1.8340236E-003	12	0	1.4152089E-005	1.1530259E+002
2	0	0	1	0	4.886369876559911E+001	-4.2754564E-002	-4.3451477E-002	-3.501171692090246E-001	0	-1.8556071E-003	12	0	1.5213108E-005	1.2410553E+002
2	0	0	1	0	4.892509876404802E+001	-4.5824576E-002	-4.6567131E-002	-3.513365266287156E-001	0	-1.8771500E-003	12	0	1.6360735E-005	1.3254282E+002
2	0	0	1	0	4.898669876249187E+001	-4.8904579E-002	-4.9636494E-002	-3.513744239401886E-001	0	-1.8988036E-003	12	0	1.7440994E-005	1.4126382E+002
2	0	0	1	0	4.904829876093572E+001	-5.1984586E-002	-5.2639000E-002	-3.521564709156797E-001	0	-1.9204818E-003	12	0	1.8537165E-005	1.4947617E+002
2	0	0	1	0	4.910989875937958E+001	-5.5064589E-002	-5.5746045E-002	-3.527755788184321E-001	0	-1.9422038E-003	12	0	1.9665844E-005	1.5802127E+002
2	0	0	1	0	4.917149875782343E+001	-5.8144603E-002	-5.8835898E-002	-3.525061314717097E-001	0	-1.9639372E-003	12	0	2.0740015E-005	1.6690744E+002
2	0	0	1	0	4.923289875627233E+001	-6.1214611E-002	-6.1917316E-002	-3.532332507492217E-001	0	-1.9856093E-003	12	0	2.1871256E-005	1.7528734E+002
2	0	0	1	0	4.929449875471619E+001	-6.4294614E-002	-6.4975865E-002	-3.533293443518239E-001	0	-2.0073836E-003	12	0	2.2957880E-005	1.8389603E+002
2	0	0	1	0	4.935609875316004E+001	-6.7374624E-002	-6.8062276E-002	-3.528229513660763E-001	0	-2.0291393E-003	12	0	2.4013932E-005	1.9290773E+002
2	0	0	1	0	4.941769875160389E+001	-7.0454627E-002	-7.1149997E-002	-3.532491508797015E-001	0	-2.0508941E-003	12	0	2.5133677E-005	2.0141591E+002
2	0	0	1	0	4.947909875005280E+001	-7.3524639E-002	-7.4230097E-002	-3.539312274428195E-001	0	-2.0726139E-003	12	0	2.6272350E-005	2.0973029E+002
2	0	0	1	0	4.954069874849665E+001	-7.6604642E-002	-7.7294670E-002	-3.541584197611130E-001	0	-2.0944329E-003	12	0	2.7374559E-005	2.1824886E+002
2	0	0	1	0	4.960229874694051E+001	-7.9684652E-002	-8.0406994E-002	-3.541092714405245E-001	0	-2.1162552E-003	12	0	2.8472861E-005	2.2706831E+002
2	0	0	1	0	4.966389874538436E+001	-8.2764655E-002	-8.3500467E-002	-3.546387023121018E-001	0	-2.1380943E-003	12	0	2.9612498E-005	2.3545221E+002
2	0	0	1	0	4.972549874382821E+001	-8.5844666E-002	-8.6593837E-002	-3.545197798059254E-001	0	-2.1599426E-003	12	0	3.0699230E-005	2.4425671E+002
2	0	0	1	0	4.978689874227712E+001	-8.8914670E-002	-8.9650549E-002	-3.550823616473274E-001	0	-2.1817363E-003	12	0	3.1833330E-005	2.5247818E+002
2	0	0	1	0	4.984849874072097E+001	-9.1994673E-002	-9.2735454E-002	-3.551059530086338E-001	0	-2.2036184E-003	12	0	3.2930911E-005	2.6114868E+002
2	0	0	1	0	4.991009873916482E+001	-9.5074676E-002	-9.5816441E-002	-3.546593334457313E-001	0	-2.2254852E-003	12	0	3.3982196E-005	2.7016473E+002
2	0	0	1	0	4.997169873760868E+001	-9.8154686E-002	-9.8879032E-002	-3.555345399263921E-001	0	-2.2473675E-003	12	0	3.5154910E-005	2.7811371E+002
2	0	0	1	0	5.000539873675734E+001	-9.9844120E-002	-1.0064469E-001	-3.555166636194498E-001	0	-2.2593539E-003	12	0	3.5780864E-005	2.8309418E+002
2	0	0	1	0	5.000579873674724E+001	-1.0015190E-001	-1.0079734E-001	-3.565339893102646E-001	0	-2.2594966E-003	12	0	3.5937679E-005	2.8271454E+002