mode	ox/red	error	control changes		time/s	control/V	Ewe/V	<I>/mA		(Q-Qo)/C	I Range		Pwe/W	Rwe/Ohm	
3	0	0	1	0	0.000000000000000E+000	0.0000000E+000	4.5072117E-001	0.000000000000000E+000	0	0.0000000E+000	14	0	0.0000000E+000	0.0000000E+000
3	0	0	0	0	2.999979924214131E+001	9.0028149E-001	4.5056853E-001	0.000000000000000E+000	0	0.0000000E+000	14	0	0.0000000E+000	0.0000000E+000
2	1	0	1	0	3.003059924136323E+001	8.9889687E-001	8.9887768E-001	1.433818321675062E-002	0	7.2453184E-007	13	0	1.2888273E-005	6.2691184E+004
2	1	0	1	0	3.006449924050685E+001	8.9720500E-001	8.9718974E-001	9.321406728004272E-003	0	1.0586235E-006	13	0	8.3630703E-006	9.6250469E+004
2	1	0	1	0	3.012609923895070E+001	8.9412487E-001	8.9408058E-001	5.874019443693188E-003	0	1.5119157E-006	13	0	5.2518467E-006	1.5220933E+005
2	1	0	1	0	3.018769923739455E+001	8.9104491E-001	8.9101821E-001	4.531140580990037E-003	0	1.8253181E-006	13	0	4.0373288E-006	1.9664325E+005
2	1	0	1	0	3.026449923545442E+001	8.8720447E-001	8.8718688E-001	3.621661337051686E-003	0	2.1286085E-006	13	0	3.2130904E-006	2.4496683E+005
2	1	0	1	0	3.034149923350924E+001	8.8335490E-001	8.8333470E-001	3.023684096888420E-003	0	2.3871573E-006	14	0	2.6709251E-006	2.9213856E+005
2	1	0	1	0	3.040309923195309E+001	8.8027483E-001	8.8023430E-001	2.697503600008470E-003	0	2.5609932E-006	14	0	2.3744351E-006	3.2631441E+005
2	1	0	1	0	3.046469923039695E+001	8.7719488E-001	8.7715662E-001	2.443234790697323E-003	0	2.7172957E-006	14	0	2.1430997E-006	3.5901447E+005
2	1	0	1	0	3.052609922884585E+001	8.7412483E-001	8.7409204E-001	2.238437821045228E-003	0	2.8590766E-006	14	0	1.9566007E-006	3.9049200E+005
2	1	0	1	0	3.058769922728970E+001	8.7104481E-001	8.7100857E-001	2.062126786216721E-003	0	2.9898108E-006	14	0	1.7961302E-006	4.2238363E+005
2	1	0	1	0	3.064929922573356E+001	8.6796486E-001	8.6797333E-001	1.915211864396808E-003	0	3.1106827E-006	14	0	1.6623528E-006	4.5319963E+005
2	1	0	1	0	3.071089922417741E+001	8.6488485E-001	8.6480170E-001	1.785004216416402E-003	0	3.2230876E-006	14	0	1.5436747E-006	4.8448159E+005
2	1	0	1	0	3.077249922262126E+001	8.6180478E-001	8.6174858E-001	1.669328361018324E-003	0	3.3280974E-006	14	0	1.4385413E-006	5.1622472E+005
2	1	0	1	0	3.083389922107017E+001	8.5873485E-001	8.5870570E-001	1.571823193609451E-003	0	3.4261986E-006	14	0	1.3497336E-006	5.4631188E+005
2	1	0	1	0	3.089549921951402E+001	8.5565490E-001	8.5557753E-001	1.479933841752479E-003	0	3.5189234E-006	14	0	1.2661982E-006	5.7811875E+005
2	1	0	1	0	3.095709921795788E+001	8.5257477E-001	8.5249764E-001	1.398317508404999E-003	0	3.6063823E-006	14	0	1.1920624E-006	6.0965956E+005
2	1	0	1	0	3.101869921640173E+001	8.4949481E-001	8.4946573E-001	1.325611323281167E-003	0	3.6890635E-006	14	0	1.1260614E-006	6.4081056E+005
2	1	0	1	0	3.108009921485063E+001	8.4642476E-001	8.4641957E-001	1.258133826691963E-003	0	3.7671537E-006	14	0	1.0649090E-006	6.7275800E+005
2	1	0	1	0	3.114169921329449E+001	8.4334481E-001	8.4335572E-001	1.197947581793844E-003	0	3.8417006E-006	14	0	1.0102959E-006	7.0400050E+005
2	1	0	1	0	3.120329921173834E+001	8.4026486E-001	8.4026253E-001	1.136388202519413E-003	0	3.9125339E-006	14	0	9.5486439E-007	7.3941506E+005
2	1	0	1	0	3.126489921018219E+001	8.3718479E-001	8.3715653E-001	1.084122246755892E-003	0	3.9800007E-006	14	0	9.0758004E-007	7.7219756E+005
2	1	0	1	0	3.132649920862605E+001	8.3410484E-001	8.3408767E-001	1.036337824141202E-003	0	4.0443638E-006	14	0	8.6439661E-007	8.0484150E+005
2	1	0	1	0	3.138789920707495E+001	8.3103484E-001	8.3102310E-001	9.902934253682005E-004	0	4.1056041E-006	14	0	8.2295674E-007	8.3916856E+005
2	1	0	1	0	3.144949920551881E+001	8.2795477E-001	8.2793951E-001	9.479827281690840E-004	0	4.1644089E-006	14	0	7.8487238E-007	8.7336981E+005
2	1	0	1	0	3.151109920396266E+001	8.2487476E-001	8.2481098E-001	9.081773184529424E-004	0	4.2206952E-006	14	0	7.4907462E-007	9.0820475E+005
2	1	0	1	0	3.157269920240651E+001	8.2179475E-001	8.2180595E-001	8.723691544069902E-004	0	4.2746419E-006	14	0	7.1691818E-007	9.4203919E+005
2	1	0	1	0	3.163409920085542E+001	8.1872475E-001	8.1870764E-001	8.370027902566655E-004	0	4.3261707E-006	14	0	6.8526060E-007	9.7814206E+005
2	1	0	1	0	3.169569919929927E+001	8.1564480E-001	8.1563753E-001	8.062901062152704E-004	0	4.3759787E-006	14	0	6.5764044E-007	1.0115931E+006
2	1	0	1	0	3.175729919774312E+001	8.1256479E-001	8.1254208E-001	7.734321794411816E-004	0	4.4237968E-006	14	0	6.2844617E-007	1.0505666E+006
2	1	0	1	0	3.181889919618698E+001	8.0948466E-001	8.0948782E-001	7.472022312979242E-004	0	4.4697899E-006	14	0	6.0485110E-007	1.0833584E+006
2	1	0	1	0	3.188049919463083E+001	8.0640477E-001	8.0641598E-001	7.205348115332166E-004	0	4.5141505E-006	14	0	5.8105076E-007	1.1191909E+006
2	1	0	1	0	3.194189919307973E+001	8.0333471E-001	8.0337930E-001	6.934970288098793E-004	0	4.5566780E-006	14	0	5.5714116E-007	1.1584466E+006
2	1	0	1	0	3.200349919152359E+001	8.0025470E-001	8.0028588E-001	6.689681049197142E-004	0	4.5978882E-006	14	0	5.3536570E-007	1.1962990E+006
2	1	0	1	0	3.206509918996744E+001	7.9717475E-001	7.9719979E-001	6.465198501212251E-004	0	4.6376940E-006	14	0	5.1540547E-007	1.2330631E+006
2	1	0	1	0	3.212669918841129E+001	7.9409474E-001	7.9415929E-001	6.255151427825671E-004	0	4.6761270E-006	14	0	4.9675867E-007	1.2696084E+006
2	1	0	1	0	3.218809918686020E+001	7.9102474E-001	7.9103583E-001	6.053641717861814E-004	0	4.7131366E-006	14	0	4.7886476E-007	1.3067106E+006
2	1	0	1	0	3.224969918530405E+001	7.8794461E-001	7.8798389E-001	5.871767433409843E-004	0	4.7491139E-006	14	0	4.6268582E-007	1.3419876E+006
2	1	0	1	0	3.231129918374791E+001	7.8486466E-001	7.8488749E-001	5.695392925362669E-004	0	4.7839430E-006	14	0	4.4702426E-007	1.3781095E+006
2	1	0	1	0	3.237289918219176E+001	7.8178471E-001	7.8177601E-001	5.509581991637834E-004	0	4.8177048E-006	14	0	4.3072589E-007	1.4189389E+006
2	1	0	1	0	3.243449918063561E+001	7.7870470E-001	7.7867526E-001	5.355427773733453E-004	0	4.8504376E-006	14	0	4.1701392E-007	1.4539926E+006
2	1	0	1	0	3.249589917908452E+001	7.7563471E-001	7.7562255E-001	5.194082777669334E-004	0	4.8820316E-006	14	0	4.0286477E-007	1.4932811E+006
2	1	0	1	0	3.255749917752837E+001	7.7255470E-001	7.7256882E-001	5.056659072244117E-004	0	4.9128976E-006	14	0	3.9066171E-007	1.5278246E+006
2	1	0	1	0	3.261909917597222E+001	7.6947469E-001	7.6949310E-001	4.928135909542085E-004	0	4.9428659E-006	14	0	3.7921666E-007	1.5614284E+006
2	1	0	1	0	3.268069917441608E+001	7.6639462E-001	7.6642525E-001	4.790857451383839E-004	0	4.9720456E-006	14	0	3.6718342E-007	1.5997664E+006
2	1	0	1	0	3.274209917286498E+001	7.6332468E-001	7.6334316E-001	4.659513339246124E-004	0	5.0002532E-006	14	0	3.5568075E-007	1.6382465E+006
2	1	0	1	0	3.280369917130884E+001	7.6024461E-001	7.6029837E-001	4.560916426771134E-004	0	5.0278677E-006	14	0	3.4676575E-007	1.6669860E+006
2	1	0	1	0	3.286529916975269E+001	7.5716466E-001	7.5720668E-001	4.426647842753996E-004	0	5.0547505E-006	14	0	3.3518873E-007	1.7105645E+006
2	1	0	1	0	3.292689916819654E+001	7.5408471E-001	7.5416881E-001	4.319756744599655E-004	0	5.0809085E-006	14	0	3.2578259E-007	1.7458595E+006
2	1	0	1	0	3.298849916664039E+001	7.5100464E-001	7.5102049E-001	4.212824176564990E-004	0	5.1064226E-006	14	0	3.1639172E-007	1.7827008E+006
2	1	0	1	0	3.304989916508930E+001	7.4793464E-001	7.4795949E-001	4.104608742600785E-004	0	5.1311472E-006	14	0	3.0700812E-007	1.8222431E+006
2	1	0	1	0	3.311149916353315E+001	7.4485457E-001	7.4494529E-001	4.027960101858968E-004	0	5.1554366E-006	14	0	3.0006100E-007	1.8494356E+006
2	1	0	1	0	3.317309916197701E+001	7.4177456E-001	7.4178231E-001	3.935739709741825E-004	0	5.1791408E-006	14	0	2.9194621E-007	1.8847341E+006
2	1	0	1	0	3.323469916042086E+001	7.3869461E-001	7.3870784E-001	3.862651072625154E-004	0	5.2022979E-006	14	0	2.8533705E-007	1.9124374E+006
2	1	0	1	0	3.329609915886977E+001	7.3562461E-001	7.3568070E-001	3.763980522879266E-004	0	5.2248392E-006	14	0	2.7690879E-007	1.9545285E+006
2	1	0	1	0	3.335769915731362E+001	7.3254460E-001	7.3256701E-001	3.697922438633998E-004	0	5.2470537E-006	14	0	2.7089760E-007	1.9810233E+006
2	1	0	1	0	3.341929915575747E+001	7.2946459E-001	7.2951138E-001	3.621960963443936E-004	0	5.2687642E-006	14	0	2.6422617E-007	2.0141338E+006
2	1	0	1	0	3.348089915420132E+001	7.2638458E-001	7.2641140E-001	3.542705163829948E-004	0	5.2900436E-006	14	0	2.5734613E-007	2.0504428E+006
2	1	0	1	0	3.354249915264518E+001	7.2330457E-001	7.2335279E-001	3.480308217744593E-004	0	5.3108465E-006	14	0	2.5174907E-007	2.0784159E+006
2	1	0	1	0	3.360389915109408E+001	7.2023457E-001	7.2028744E-001	3.420433047470924E-004	0	5.3311101E-006	14	0	2.4636950E-007	2.1058370E+006
2	1	0	1	0	3.366549914953794E+001	7.1715456E-001	7.1719503E-001	3.339469642656238E-004	0	5.3511158E-006	14	0	2.3950511E-007	2.1476315E+006
2	1	0	1	0	3.372709914798179E+001	7.1407455E-001	7.1413070E-001	3.271946024042476E-004	0	5.3706863E-006	14	0	2.3365970E-007	2.1825870E+006
2	1	0	1	0	3.378869914642564E+001	7.1099460E-001	7.1102142E-001	3.232098494614058E-004	0	5.3898643E-006	14	0	2.2980913E-007	2.1998755E+006
2	1	0	1	0	3.385009914487455E+001	7.0792454E-001	7.0794737E-001	3.143387580062697E-004	0	5.4085399E-006	14	0	2.2253529E-007	2.2521798E+006
2	1	0	1	0	3.391169914331840E+001	7.0484459E-001	7.0485073E-001	3.089204588224248E-004	0	5.4269290E-006	14	0	2.1774281E-007	2.2816578E+006
2	1	0	1	0	3.397329914176225E+001	7.0176464E-001	7.0176286E-001	3.051065311564802E-004	0	5.4450279E-006	14	0	2.1411243E-007	2.3000585E+006
2	1	0	1	0	3.403489914020611E+001	6.9868451E-001	6.9873512E-001	2.990713462025312E-004	0	5.4627985E-006	14	0	2.0897166E-007	2.3363493E+006
2	1	0	1	0	3.409649913864996E+001	6.9560456E-001	6.9567484E-001	2.933835600039030E-004	0	5.4802445E-006	14	0	2.0409956E-007	2.3712128E+006
2	1	0	1	0	3.415789913709887E+001	6.9253457E-001	6.9250965E-001	2.891417102713198E-004	0	5.4972770E-006	14	0	2.0023343E-007	2.3950528E+006
2	1	0	1	0	3.421949913554272E+001	6.8945456E-001	6.8948436E-001	2.857086380844946E-004	0	5.5141313E-006	14	0	1.9699164E-007	2.4132430E+006
2	1	0	1	0	3.428109913398657E+001	6.8637455E-001	6.8638462E-001	2.808606033717124E-004	0	5.5307223E-006	14	0	1.9277840E-007	2.4438623E+006
2	1	0	1	0	3.434269913243043E+001	6.8329453E-001	6.8333781E-001	2.739138962503536E-004	0	5.5470232E-006	14	0	1.8717571E-007	2.4947175E+006
2	1	0	1	0	3.440419913087680E+001	6.8022013E-001	6.8025637E-001	2.731252142177698E-004	0	5.5630167E-006	14	0	1.8579516E-007	2.4906393E+006
2	1	0	1	0	3.446569912932318E+001	6.7714560E-001	6.7715782E-001	2.688578629840874E-004	0	5.5787591E-006	14	0	1.8205921E-007	2.5186463E+006
2	1	0	1	0	3.452729912776704E+001	6.7406559E-001	6.7409241E-001	2.628814759892536E-004	0	5.5942896E-006	14	0	1.7720640E-007	2.5642448E+006
2	1	0	1	0	3.458889912621089E+001	6.7098558E-001	6.7105311E-001	2.624016504953572E-004	0	5.6095873E-006	14	0	1.7608545E-007	2.5573510E+006
2	1	0	1	0	3.465049912465474E+001	6.6790563E-001	6.6791397E-001	2.567785312527502E-004	0	5.6246695E-006	14	0	1.7150597E-007	2.6011285E+006
2	1	0	1	0	3.471189912310365E+001	6.6483557E-001	6.6485178E-001	2.535547264061360E-004	0	5.6394520E-006	14	0	1.6857631E-007	2.6221235E+006
2	1	0	1	0	3.477349912154750E+001	6.6175562E-001	6.6181481E-001	2.507249636798593E-004	0	5.6541580E-006	14	0	1.6593350E-007	2.6396048E+006
2	1	0	1	0	3.483509911999136E+001	6.5867561E-001	6.5868729E-001	2.471032730381626E-004	0	5.6686827E-006	14	0	1.6276378E-007	2.6656358E+006
2	1	0	1	0	3.489669911843521E+001	6.5559554E-001	6.5562665E-001	2.439108372303272E-004	0	5.6830022E-006	14	0	1.5991445E-007	2.6879768E+006
2	1	0	1	0	3.495829911687906E+001	6.5251559E-001	6.5256190E-001	2.417834006402796E-004	0	5.6971548E-006	14	0	1.5777863E-007	2.6989525E+006
2	1	0	1	0	3.501969911532797E+001	6.4944553E-001	6.4948052E-001	2.398871938587063E-004	0	5.7110901E-006	14	0	1.5580206E-007	2.7074415E+006
2	1	0	1	0	3.508129911377182E+001	6.4636552E-001	6.4640224E-001	2.370441137477361E-004	0	5.7249335E-006	14	0	1.5322584E-007	2.7269280E+006
2	1	0	1	0	3.514289911221567E+001	6.4328551E-001	6.4332074E-001	2.328519263920630E-004	0	5.7385619E-006	14	0	1.4979847E-007	2.7627890E+006
2	1	0	1	0	3.520449911065953E+001	6.4020556E-001	6.4024103E-001	2.303233543376020E-004	0	5.7520015E-006	14	0	1.4746246E-007	2.7797485E+006
2	1	0	1	0	3.526589910910843E+001	6.3713557E-001	6.3717896E-001	2.292720917511941E-004	0	5.7651987E-006	14	0	1.4608736E-007	2.7791388E+006
2	1	0	1	0	3.532749910755228E+001	6.3405550E-001	6.3408571E-001	2.250420843979031E-004	0	5.7783250E-006	14	0	1.4269597E-007	2.8176318E+006
2	1	0	1	0	3.538909910599614E+001	6.3097554E-001	6.3103276E-001	2.235322648694344E-004	0	5.7912825E-006	14	0	1.4105618E-007	2.8230053E+006
2	1	0	1	0	3.545069910443999E+001	6.2789553E-001	6.2792838E-001	2.216784271045886E-004	0	5.8040628E-006	14	0	1.3919818E-007	2.8326093E+006
2	1	0	1	0	3.551229910288384E+001	6.2481552E-001	6.2484795E-001	2.171033904548726E-004	0	5.8166925E-006	14	0	1.3565661E-007	2.8781123E+006
2	1	0	1	0	3.557369910133275E+001	6.2174553E-001	6.2174553E-001	2.168384577356580E-004	0	5.8291284E-006	14	0	1.3481834E-007	2.8673213E+006
2	1	0	1	0	3.563529909977660E+001	6.1866552E-001	6.1864984E-001	2.142941094944794E-004	0	5.8414762E-006	14	0	1.3257302E-007	2.8869195E+006
2	1	0	1	0	3.569689909822046E+001	6.1558557E-001	6.1556530E-001	2.097846559295880E-004	0	5.8536712E-006	14	0	1.2913615E-007	2.9342723E+006
2	1	0	1	0	3.575849909666431E+001	6.1250550E-001	6.1250281E-001	2.096875362475675E-004	0	5.8657215E-006	14	0	1.2843421E-007	2.9210263E+006
2	1	0	1	0	3.581989909511321E+001	6.0943550E-001	6.0944754E-001	2.065268827549272E-004	0	5.8775840E-006	14	0	1.2586730E-007	2.9509358E+006
2	1	0	1	0	3.588149909355707E+001	6.0635549E-001	6.0638434E-001	2.037521109780893E-004	0	5.8893606E-006	14	0	1.2355208E-007	2.9760885E+006
2	1	0	1	0	3.594309909200092E+001	6.0327548E-001	6.0327798E-001	2.003126623008121E-004	0	5.9009803E-006	14	0	1.2084422E-007	3.0116818E+006
2	1	0	1	0	3.600469909044477E+001	6.0019553E-001	6.0025358E-001	1.996343106808567E-004	0	5.9124523E-006	14	0	1.1983121E-007	3.0067655E+006
2	1	0	1	0	3.606629908888863E+001	5.9711546E-001	5.9717721E-001	1.971690905058113E-004	0	5.9237505E-006	14	0	1.1774489E-007	3.0287568E+006
2	1	0	1	0	3.612769908733753E+001	5.9404552E-001	5.9407091E-001	1.943126579293107E-004	0	5.9348590E-006	14	0	1.1543550E-007	3.0572940E+006
2	1	0	1	0	3.618929908578139E+001	5.9096539E-001	5.9099662E-001	1.906373548765661E-004	0	5.9458675E-006	14	0	1.1266604E-007	3.1001093E+006
2	1	0	1	0	3.625089908422524E+001	5.8788544E-001	5.8793491E-001	1.906294159579637E-004	0	5.9567051E-006	14	0	1.1207769E-007	3.0841773E+006
2	1	0	1	0	3.631249908266909E+001	5.8480543E-001	5.8481419E-001	1.877684052035249E-004	0	5.9674426E-006	14	0	1.0980963E-007	3.1145505E+006
2	1	0	1	0	3.637389908111800E+001	5.8173543E-001	5.8176887E-001	1.858109471772378E-004	0	5.9779836E-006	14	0	1.0809902E-007	3.1309720E+006
2	1	0	1	0	3.643549907956185E+001	5.7865542E-001	5.7867229E-001	1.840313277376854E-004	0	5.9884733E-006	14	0	1.0649383E-007	3.1444228E+006
2	1	0	1	0	3.649709907800570E+001	5.7557547E-001	5.7559687E-001	1.800083188865658E-004	0	5.9988261E-006	14	0	1.0361222E-007	3.1976125E+006
2	1	0	1	0	3.655869907644956E+001	5.7249552E-001	5.7249421E-001	1.799434971962331E-004	0	6.0090597E-006	14	0	1.0301661E-007	3.1815220E+006
2	1	0	1	0	3.662029907489341E+001	5.6941539E-001	5.6945384E-001	1.785445359246339E-004	0	6.0192001E-006	14	0	1.0167287E-007	3.1894218E+006
2	1	0	1	0	3.668169907334232E+001	5.6634545E-001	5.6636095E-001	1.747555628747880E-004	0	6.0291350E-006	14	0	9.8974724E-008	3.2408750E+006
2	1	0	1	0	3.674329907178617E+001	5.6326544E-001	5.6327474E-001	1.745856926661485E-004	0	6.0390416E-006	14	0	9.8339711E-008	3.2263510E+006
2	1	0	1	0	3.680489907023002E+001	5.6018543E-001	5.6024194E-001	1.746674442350488E-004	0	6.0488478E-006	14	0	9.7856031E-008	3.2074778E+006
2	1	0	1	0	3.686649906867387E+001	5.5710542E-001	5.5709362E-001	1.705777355989033E-004	0	6.0585458E-006	14	0	9.5027765E-008	3.2659223E+006
2	1	0	1	0	3.692789906712278E+001	5.5403543E-001	5.5403548E-001	1.694865287275248E-004	0	6.0680254E-006	14	0	9.3901548E-008	3.2689058E+006
2	1	0	1	0	3.698949906556663E+001	5.5095541E-001	5.5092192E-001	1.641045374727604E-004	0	6.0773259E-006	14	0	9.0408790E-008	3.3571400E+006
2	1	0	1	0	3.705109906401049E+001	5.4787534E-001	5.4784894E-001	1.616535635300472E-004	0	6.0863422E-006	14	0	8.8561734E-008	3.3890310E+006
2	1	0	1	0	3.711269906245434E+001	5.4479539E-001	5.4477471E-001	1.559656737561248E-004	0	6.0951911E-006	14	0	8.4966153E-008	3.4929143E+006
2	1	0	1	0	3.717429906089819E+001	5.4171538E-001	5.4166210E-001	1.526571746767380E-004	0	6.1038118E-006	14	0	8.2688608E-008	3.5482255E+006
2	1	0	1	0	3.723569905934710E+001	5.3864539E-001	5.3859252E-001	1.481433472628698E-004	0	6.1121500E-006	14	0	7.9788897E-008	3.6356173E+006
2	1	0	1	0	3.729729905779095E+001	5.3556538E-001	5.3553623E-001	1.453156581378122E-004	0	6.1203432E-006	14	0	7.7821802E-008	3.6853305E+006
2	1	0	1	0	3.735889905623480E+001	5.3248537E-001	5.3246182E-001	1.432406268981609E-004	0	6.1282603E-006	14	0	7.6270162E-008	3.7172543E+006
2	1	0	1	0	3.742049905467866E+001	5.2940536E-001	5.2941298E-001	1.386607353793421E-004	0	6.1359801E-006	14	0	7.3408792E-008	3.8180455E+006
2	1	0	1	0	3.748189905312756E+001	5.2633530E-001	5.2632117E-001	1.336747814768625E-004	0	6.1433484E-006	14	0	7.0355867E-008	3.9373258E+006
2	1	0	1	0	3.754349905157142E+001	5.2325535E-001	5.2325147E-001	1.300211601809347E-004	0	6.1504943E-006	14	0	6.8033764E-008	4.0243563E+006
2	1	0	1	0	3.760509905001527E+001	5.2017534E-001	5.2018255E-001	1.264236383134282E-004	0	6.1573846E-006	14	0	6.5763373E-008	4.1145988E+006
2	1	0	1	0	3.766669904845912E+001	5.1709533E-001	5.1709884E-001	1.197419064403063E-004	0	6.1639644E-006	14	0	6.1918399E-008	4.3184450E+006
2	1	0	1	0	3.772829904690298E+001	5.1401538E-001	5.1400959E-001	1.141870691859013E-004	0	6.1701749E-006	14	0	5.8693249E-008	4.5014695E+006
2	1	0	1	0	3.778969904535188E+001	5.1094532E-001	5.1093680E-001	1.081232615431743E-004	0	6.1759438E-006	14	0	5.5244154E-008	4.7255030E+006
2	1	0	1	0	3.785129904379573E+001	5.0786537E-001	5.0784653E-001	9.999471492044589E-005	0	6.1813098E-006	14	0	5.0781971E-008	5.0787340E+006
2	1	0	1	0	3.791289904223959E+001	5.0478530E-001	5.0471169E-001	9.190438599024483E-005	0	6.1862083E-006	14	0	4.6385217E-008	5.4917040E+006
2	1	0	1	0	3.797449904068344E+001	5.0170529E-001	5.0166625E-001	8.495164925734059E-005	0	6.1905735E-006	14	0	4.2617376E-008	5.9053150E+006
2	1	0	1	0	3.803589903913235E+001	4.9863532E-001	4.9857324E-001	7.223051104706172E-005	0	6.1943183E-006	14	0	3.6012199E-008	6.9025295E+006
2	1	0	1	0	3.809749903757620E+001	4.9555534E-001	4.9547997E-001	6.441417021892625E-005	0	6.1974906E-006	14	0	3.1915931E-008	7.6920960E+006
2	1	0	1	0	3.815909903602005E+001	4.9247530E-001	4.9241725E-001	5.225825777706577E-005	0	6.1999694E-006	14	0	2.5732867E-008	9.4227640E+006
2	1	0	1	0	3.822069903446391E+001	4.8939526E-001	4.8935780E-001	3.950056687798139E-005	0	6.2016766E-006	14	0	1.9329910E-008	1.2388627E+007
2	1	0	1	0	3.828229903290776E+001	4.8631531E-001	4.8626542E-001	2.338796152753406E-005	0	6.2025110E-006	14	0	1.1372757E-008	2.0791270E+007
2	1	0	1	0	3.834369903135666E+001	4.8324522E-001	4.8320740E-001	1.087205613499674E-005	0	6.2023805E-006	14	0	5.2534581E-009	4.4444896E+007
2	1	0	1	0	3.840529902980052E+001	4.8016527E-001	4.8008442E-001	-8.204345290975389E-006	0	6.2012341E-006	14	0	-3.9387782E-009	5.8515872E+007
2	1	0	1	0	3.846689902824437E+001	4.7708529E-001	4.7702625E-001	-2.882239355558690E-005	0	6.1989263E-006	14	0	-1.3749038E-008	1.6550543E+007
2	1	0	1	0	3.852849902668822E+001	4.7400528E-001	4.7394696E-001	-4.719393614890900E-005	0	6.1953519E-006	14	0	-2.2367422E-008	1.0042539E+007
2	1	0	1	0	3.858989902513713E+001	4.7093529E-001	4.7084865E-001	-7.308370554524894E-005	0	6.1903911E-006	14	0	-3.4411364E-008	6.4425940E+006
2	1	0	1	0	3.865149902358098E+001	4.6785522E-001	4.6778572E-001	-9.959404719071937E-005	0	6.1838541E-006	14	0	-4.6588674E-008	4.6969245E+006
2	0	0	1	0	3.871309902202484E+001	4.6477526E-001	4.6465954E-001	-1.266797473630310E-004	0	6.1755891E-006	14	0	-5.8862952E-008	3.6679860E+006
2	0	0	1	0	3.877469902046869E+001	4.6169522E-001	4.6159396E-001	-1.606976723163880E-004	0	6.1653973E-006	14	0	-7.4177073E-008	2.8724370E+006
2	0	0	1	0	3.883629901891254E+001	4.5861521E-001	4.5847610E-001	-1.974630558407415E-004	0	6.1530909E-006	14	0	-9.0532090E-008	2.3218323E+006
2	0	0	1	0	3.889769901736145E+001	4.5554522E-001	4.5543504E-001	-2.350442928423023E-004	0	6.1383939E-006	14	0	-1.0704741E-007	1.9376563E+006
2	0	0	1	0	3.895929901580530E+001	4.5246524E-001	4.5235744E-001	-2.794029313399069E-004	0	6.1210858E-006	14	0	-1.2638999E-007	1.6190146E+006
2	0	0	1	0	3.902089901424915E+001	4.4938523E-001	4.4932070E-001	-3.286247588424581E-004	0	6.1008432E-006	14	0	-1.4765791E-007	1.3672759E+006
2	0	0	1	0	3.908249901269301E+001	4.4630519E-001	4.4619974E-001	-3.840662663361361E-004	0	6.0773150E-006	14	0	-1.7137027E-007	1.1617780E+006
2	0	0	1	0	3.914389901114191E+001	4.4323522E-001	4.4312385E-001	-4.449388382724664E-004	0	6.0501757E-006	14	0	-1.9716300E-007	9.9592081E+005
2	0	0	1	0	3.920549900958576E+001	4.4015518E-001	4.4006214E-001	-5.149940341565903E-004	0	6.0189350E-006	14	0	-2.2662937E-007	8.5449950E+005
2	0	0	1	0	3.926709900802962E+001	4.3707520E-001	4.3698990E-001	-5.897747626238160E-004	0	5.9831787E-006	14	0	-2.5772562E-007	7.4094369E+005
2	0	0	1	0	3.932869900647347E+001	4.3399522E-001	4.3388182E-001	-6.748007490532688E-004	0	5.9423701E-006	14	0	-2.9278377E-007	6.4297769E+005
2	0	0	1	0	3.939029900491732E+001	4.3091515E-001	4.3081403E-001	-7.691218660182868E-004	0	5.8959940E-006	14	0	-3.3134850E-007	5.6013756E+005
2	0	0	1	0	3.945169900336623E+001	4.2784515E-001	4.2770550E-001	-8.744074645471462E-004	0	5.8435444E-006	14	0	-3.7398888E-007	4.8913753E+005
2	0	0	1	0	3.951329900181008E+001	4.2476514E-001	4.2463949E-001	-9.878849593810378E-004	0	5.7840834E-006	14	0	-4.1949497E-007	4.2984709E+005
2	0	0	1	0	3.957489900025394E+001	4.2168519E-001	4.2149407E-001	-1.115556011909668E-003	0	5.7170460E-006	14	0	-4.7020023E-007	3.7783319E+005
2	0	0	1	0	3.963649899869779E+001	4.1860515E-001	4.1844213E-001	-1.262795224087537E-003	0	5.6414920E-006	14	0	-5.2840670E-007	3.3136181E+005
2	0	0	1	0	3.969789899714669E+001	4.1553515E-001	4.1533542E-001	-1.417328127468405E-003	0	5.5567903E-006	14	0	-5.8866658E-007	2.9304113E+005
2	0	0	1	0	3.975949899559055E+001	4.1245517E-001	4.1232663E-001	-1.590333594097909E-003	0	5.4616021E-006	14	0	-6.5573693E-007	2.5927053E+005
2	0	0	1	0	3.982109899403440E+001	4.0937510E-001	4.0918911E-001	-1.784223022636056E-003	0	5.3550039E-006	14	0	-7.3008459E-007	2.2933742E+005
2	0	0	1	0	3.988269899247825E+001	4.0629515E-001	4.0611064E-001	-2.000016859900705E-003	0	5.2355545E-006	14	0	-8.1222811E-007	2.0305361E+005
2	0	0	1	0	3.994429899092211E+001	4.0321514E-001	4.0309384E-001	-2.237793765872863E-003	0	5.1019729E-006	14	0	-9.0204088E-007	1.8013003E+005
2	0	0	1	0	4.000569898937101E+001	4.0014511E-001	3.9994645E-001	-2.497651460775463E-003	0	4.9533182E-006	14	0	-9.9892679E-007	1.6012902E+005
2	0	0	1	0	4.006729898781487E+001	3.9706510E-001	3.9689967E-001	-2.791283153675359E-003	0	4.7869748E-006	14	0	-1.1078594E-006	1.4219255E+005
2	0	0	1	0	4.012889898625872E+001	3.9398509E-001	3.9377749E-001	-3.116462505623446E-003	0	4.6013502E-006	14	0	-1.2271928E-006	1.2635399E+005
2	0	0	1	0	4.019049898470257E+001	3.9090514E-001	3.9070687E-001	-3.470386528633261E-003	0	4.3944833E-006	14	0	-1.3559038E-006	1.1258310E+005
2	0	0	1	0	4.025189898315148E+001	3.8783506E-001	3.8762131E-001	-3.867207505471544E-003	0	4.1650546E-006	14	0	-1.4990120E-006	1.0023288E+005
2	0	0	1	0	4.031349898159533E+001	3.8475507E-001	3.8451329E-001	-4.295844933070350E-003	0	3.9092320E-006	14	0	-1.6518095E-006	8.9508188E+004
2	0	0	1	0	4.037509898003918E+001	3.8167509E-001	3.8143882E-001	-4.769280583692508E-003	0	3.6253327E-006	14	0	-1.8191888E-006	7.9978273E+004
2	0	0	1	0	4.043669897848304E+001	3.7859508E-001	3.7830743E-001	-5.296963964426554E-003	0	3.3103852E-006	14	0	-2.0038808E-006	7.1419672E+004
2	0	0	1	0	4.049829897692689E+001	3.7551507E-001	3.7526917E-001	-5.861303946017526E-003	0	2.9614723E-006	14	0	-2.1995668E-006	6.4024863E+004
2	0	0	1	0	4.055969897537580E+001	3.7244508E-001	3.7220180E-001	-6.478479702107062E-003	0	2.5771139E-006	14	0	-2.4113019E-006	5.7452027E+004
2	0	0	1	0	4.062129897381965E+001	3.6936510E-001	3.6915830E-001	-7.168508330807150E-003	0	2.1508361E-006	14	0	-2.6463144E-006	5.1497227E+004
2	0	0	1	0	4.068289897226350E+001	3.6628509E-001	3.6603481E-001	-7.918788048475192E-003	0	1.6797408E-006	14	0	-2.8985521E-006	4.6223590E+004
2	0	0	1	0	4.074449897070735E+001	3.6320505E-001	3.6297789E-001	-8.745620720717218E-003	0	1.1598869E-006	14	0	-3.1744669E-006	4.1503961E+004
2	0	0	1	0	4.080589896915626E+001	3.6013505E-001	3.5991338E-001	-9.632872709851276E-003	0	5.8870756E-007	14	0	-3.4669997E-006	3.7363035E+004
2	0	0	1	0	4.088289896721108E+001	3.5628486E-001	3.5600767E-001	-1.088225723624436E-002	0	-2.1984256E-007	14	0	-3.8741669E-006	3.2714506E+004
2	0	0	1	0	4.095989896526589E+001	3.5243502E-001	3.5213241E-001	-1.221517445660053E-002	0	-1.1102126E-006	13	0	-4.3013588E-006	2.8827457E+004
2	0	0	1	0	4.102149896370975E+001	3.4935504E-001	3.4905624E-001	-1.342139165042255E-002	0	-1.9089907E-006	13	0	-4.6848204E-006	2.6007455E+004
2	0	0	1	0	4.108289896215865E+001	3.4628505E-001	3.4600157E-001	-1.470778189738686E-002	0	-2.7823110E-006	13	0	-5.0889157E-006	2.3525068E+004
2	0	0	1	0	4.114449896060250E+001	3.4320506E-001	3.4292608E-001	-1.612060187559278E-002	0	-3.7420295E-006	13	0	-5.5281748E-006	2.1272535E+004
2	0	0	1	0	4.120609895904636E+001	3.4012499E-001	3.3982727E-001	-1.763374987594885E-002	0	-4.7922576E-006	13	0	-5.9924291E-006	1.9271412E+004
2	0	0	1	0	4.126769895749021E+001	3.3704501E-001	3.3675081E-001	-1.926385225474675E-002	0	-5.9399240E-006	13	0	-6.4871178E-006	1.7480969E+004
2	0	0	1	0	4.132929895593406E+001	3.3396503E-001	3.3372965E-001	-2.098376658571081E-002	0	-7.1910199E-006	13	0	-7.0029050E-006	1.5904183E+004
2	0	0	1	0	4.139069895438297E+001	3.3089498E-001	3.3066878E-001	-2.282692364281969E-002	0	-8.5479296E-006	13	0	-7.5481507E-006	1.4485911E+004
2	0	0	1	0	4.145229895282682E+001	3.2781497E-001	3.2753927E-001	-2.482849777269411E-002	0	-1.0028521E-005	13	0	-8.1323078E-006	1.3192069E+004
2	0	0	1	0	4.151389895127068E+001	3.2473499E-001	3.2448190E-001	-2.693960524924810E-002	0	-1.1636094E-005	13	0	-8.7414146E-006	1.2044791E+004
2	0	0	1	0	4.157549894971453E+001	3.2165498E-001	3.2143345E-001	-2.915816220972967E-002	0	-1.3377686E-005	13	0	-9.3724084E-006	1.1023790E+004
2	0	0	1	0	4.163689894816343E+001	3.1858498E-001	3.1832829E-001	-3.154892799182646E-002	0	-1.5255714E-005	13	0	-1.0042916E-005	1.0089987E+004
2	0	0	1	0	4.169849894660729E+001	3.1550497E-001	3.1522131E-001	-3.403895394648057E-002	0	-1.7290622E-005	13	0	-1.0729804E-005	9.2606055E+003
2	0	0	1	0	4.176009894505114E+001	3.1242499E-001	3.1215641E-001	-3.666995529633588E-002	0	-1.9484101E-005	13	0	-1.1446761E-005	8.5125928E+003
2	0	0	1	0	4.182169894349499E+001	3.0934495E-001	3.0903906E-001	-3.943576468754806E-002	0	-2.1843945E-005	13	0	-1.2187192E-005	7.8365176E+003
2	0	0	1	0	4.188329894193885E+001	3.0626500E-001	3.0599019E-001	-4.227637730882916E-002	0	-2.4377166E-005	13	0	-1.2936157E-005	7.2378525E+003
2	0	0	1	0	4.194469894038775E+001	3.0319494E-001	3.0288568E-001	-4.526336418560983E-002	0	-2.7081725E-005	13	0	-1.3709625E-005	6.6916299E+003
2	0	0	1	0	4.200629893883161E+001	3.0011493E-001	2.9976755E-001	-4.837475150112081E-002	0	-2.9983174E-005	13	0	-1.4501181E-005	6.1967773E+003
2	0	0	1	0	4.206789893727546E+001	2.9703492E-001	2.9673165E-001	-5.154502212136536E-002	0	-3.3078992E-005	13	0	-1.5295040E-005	5.7567471E+003
2	0	0	1	0	4.212949893571931E+001	2.9395494E-001	2.9365826E-001	-5.479219156486015E-002	0	-3.6372458E-005	13	0	-1.6090180E-005	5.3594912E+003
2	0	0	1	0	4.219089893416822E+001	2.9088497E-001	2.9060468E-001	-5.813813040046445E-002	0	-3.9858249E-005	13	0	-1.6895212E-005	4.9985215E+003
2	0	0	1	0	4.225249893261207E+001	2.8780490E-001	2.8751484E-001	-6.156688987834424E-002	0	-4.3564876E-005	13	0	-1.7701394E-005	4.6699590E+003
2	0	0	1	0	4.231409893105592E+001	2.8472495E-001	2.8447539E-001	-6.505430334845463E-002	0	-4.7484456E-005	13	0	-1.8506347E-005	4.3728911E+003
2	0	0	1	0	4.237569892949978E+001	2.8164491E-001	2.8138298E-001	-6.854225014149412E-002	0	-5.1619252E-005	13	0	-1.9286623E-005	4.1052485E+003
2	0	0	1	0	4.243729892794363E+001	2.7856490E-001	2.7828127E-001	-7.210393583902208E-002	0	-5.5971734E-005	13	0	-2.0065176E-005	3.8594463E+003
2	0	0	1	0	4.249869892639254E+001	2.7549490E-001	2.7522120E-001	-7.565501208847158E-002	0	-6.0528408E-005	13	0	-2.0821863E-005	3.6378450E+003
2	0	0	1	0	4.256029892483639E+001	2.7241489E-001	2.7212182E-001	-7.918764423374558E-002	0	-6.5318884E-005	13	0	-2.1548685E-005	3.4364177E+003
2	0	0	1	0	4.262189892328024E+001	2.6933491E-001	2.6903236E-001	-8.277038323528241E-002	0	-7.0328468E-005	13	0	-2.2267912E-005	3.2503457E+003
2	0	0	1	0	4.268349892172409E+001	2.6625487E-001	2.6595894E-001	-8.625265654739733E-002	0	-7.5555188E-005	13	0	-2.2939665E-005	3.0834868E+003
2	0	0	1	0	4.274489892017300E+001	2.6318491E-001	2.6285216E-001	-8.968290326949058E-002	0	-8.0977712E-005	13	0	-2.3573344E-005	2.9309060E+003
2	0	0	1	0	4.280649891861685E+001	2.6010486E-001	2.5977182E-001	-9.313296474995414E-002	0	-8.6629771E-005	13	0	-2.4193319E-005	2.7892576E+003
2	0	0	1	0	4.286809891706071E+001	2.5702485E-001	2.5673455E-001	-9.643655656174888E-002	0	-9.2489812E-005	13	0	-2.4758596E-005	2.6622119E+003
2	0	0	1	0	4.292969891550456E+001	2.5394487E-001	2.5368270E-001	-9.968193986083129E-002	0	-9.8551238E-005	13	0	-2.5287583E-005	2.5449214E+003
2	0	0	1	0	4.299129891394841E+001	2.5086486E-001	2.5055134E-001	-1.028942184996652E-001	0	-1.0481157E-004	13	0	-2.5780284E-005	2.4350381E+003
2	0	0	1	0	4.305269891239732E+001	2.4779488E-001	2.4752313E-001	-1.059686212716231E-001	0	-1.1124487E-004	13	0	-2.6229685E-005	2.3358154E+003
2	0	0	1	0	4.312659891053045E+001	2.4409817E-001	2.4385992E-001	-1.094514674274583E-001	0	-1.1926030E-004	13	0	-2.6690826E-005	2.2280188E+003
2	0	0	1	0	4.320049890866358E+001	2.4040486E-001	2.4009098E-001	-1.128556437325135E-001	0	-1.2749078E-004	12	0	-2.7095622E-005	2.1274167E+003
2	0	0	1	0	4.326209890710743E+001	2.3732485E-001	2.3703355E-001	-1.155954733442752E-001	0	-1.3454827E-004	12	0	-2.7400005E-005	2.0505435E+003
2	0	0	1	0	4.332369890555128E+001	2.3424482E-001	2.3389971E-001	-1.182919435111977E-001	0	-1.4177334E-004	12	0	-2.7668451E-005	1.9773088E+003
2	0	0	1	0	4.338509890400019E+001	2.3117484E-001	2.3081243E-001	-1.208240366076396E-001	0	-1.4913439E-004	12	0	-2.7887689E-005	1.9103188E+003
2	0	0	1	0	4.344669890244404E+001	2.2809482E-001	2.2773877E-001	-1.232106428792563E-001	0	-1.5667100E-004	12	0	-2.8059840E-005	1.8483693E+003
2	0	0	1	0	4.350829890088789E+001	2.2501479E-001	2.2466473E-001	-1.255453102559445E-001	0	-1.6435258E-004	12	0	-2.8205604E-005	1.7895111E+003
2	0	0	1	0	4.356989889933175E+001	2.2193481E-001	2.2157945E-001	-1.277539009347621E-001	0	-1.7217360E-004	12	0	-2.8307639E-005	1.7344241E+003
2	0	0	1	0	4.363129889778065E+001	2.1886481E-001	2.1849428E-001	-1.298771208994325E-001	0	-1.8010232E-004	12	0	-2.8377408E-005	1.6823154E+003
2	0	0	1	0	4.369289889622451E+001	2.1578480E-001	2.1543597E-001	-1.318641310138089E-001	0	-1.8818272E-004	12	0	-2.8408276E-005	1.6337723E+003
2	0	0	1	0	4.375449889466836E+001	2.1270478E-001	2.1235837E-001	-1.337948104968492E-001	0	-1.9638379E-004	12	0	-2.8412447E-005	1.5871943E+003
2	0	0	1	0	4.381609889311221E+001	2.0962480E-001	2.0929421E-001	-1.357058132214782E-001	0	-2.0470309E-004	12	0	-2.8402441E-005	1.5422642E+003
2	0	0	1	0	4.387769889155607E+001	2.0654479E-001	2.0617390E-001	-1.374979912571076E-001	0	-2.1313573E-004	12	0	-2.8348497E-005	1.4994684E+003
2	0	0	1	0	4.393909889000497E+001	2.0347477E-001	2.0318058E-001	-1.392034252868091E-001	0	-2.2164849E-004	12	0	-2.8283433E-005	1.4595947E+003
2	0	0	1	0	4.400069888844882E+001	2.0039478E-001	2.0007028E-001	-1.408932991936007E-001	0	-2.3029317E-004	12	0	-2.8188562E-005	1.4200127E+003
2	0	0	1	0	4.406229888689268E+001	1.9731478E-001	1.9701086E-001	-1.424935608820142E-001	0	-2.3903890E-004	12	0	-2.8072778E-005	1.3825948E+003
2	0	0	1	0	4.412389888533653E+001	1.9423588E-001	1.9390060E-001	-1.440491031994648E-001	0	-2.4788210E-004	12	0	-2.7931208E-005	1.3460730E+003
2	0	0	1	0	4.418539888378291E+001	1.9116031E-001	1.9083291E-001	-1.455763969126433E-001	0	-2.5680504E-004	12	0	-2.7780769E-005	1.3108782E+003
2	0	0	1	0	4.424689888222929E+001	1.8808585E-001	1.8771817E-001	-1.469682746455241E-001	0	-2.6581774E-004	12	0	-2.7588616E-005	1.2772700E+003
2	0	0	1	0	4.430849888067314E+001	1.8500586E-001	1.8463586E-001	-1.482848598923905E-001	0	-2.7492788E-004	12	0	-2.7378703E-005	1.2451431E+003
2	0	0	1	0	4.437009887911699E+001	1.8192585E-001	1.8153942E-001	-1.494362862896441E-001	0	-2.8411319E-004	12	0	-2.7128575E-005	1.2148282E+003
2	0	0	1	0	4.443169887756085E+001	1.7884587E-001	1.7847992E-001	-1.504500824537649E-001	0	-2.9336507E-004	12	0	-2.6852320E-005	1.1863066E+003
2	0	0	1	0	4.449309887600975E+001	1.7577584E-001	1.7537953E-001	-1.513991831357551E-001	0	-3.0264680E-004	12	0	-2.6552318E-005	1.1583915E+003
2	0	0	1	0	4.455469887445361E+001	1.7269585E-001	1.7230880E-001	-1.523883423487482E-001	0	-3.1201844E-004	12	0	-2.6257852E-005	1.1307217E+003
2	0	0	1	0	4.461629887289746E+001	1.6961582E-001	1.6928416E-001	-1.533715681182040E-001	0	-3.2145070E-004	12	0	-2.5963378E-005	1.1037520E+003
2	0	0	1	0	4.467789887134131E+001	1.6653581E-001	1.6617899E-001	-1.543717139803356E-001	0	-3.3094353E-004	12	0	-2.5653335E-005	1.0764860E+003
2	0	0	1	0	4.473949886978517E+001	1.6345583E-001	1.6314214E-001	-1.553145311413391E-001	0	-3.4049581E-004	12	0	-2.5338346E-005	1.0503984E+003
2	0	0	1	0	4.480089886823407E+001	1.6038582E-001	1.6004801E-001	-1.562466914134728E-001	0	-3.5007487E-004	12	0	-2.5006972E-005	1.0243290E+003
2	0	0	1	0	4.486249886667792E+001	1.5730582E-001	1.5697178E-001	-1.571483951678041E-001	0	-3.5974121E-004	12	0	-2.4667863E-005	9.9887616E+002
2	0	0	1	0	4.492409886512178E+001	1.5422580E-001	1.5385088E-001	-1.580016488236264E-001	0	-3.6946192E-004	12	0	-2.4308692E-005	9.7372961E+002
2	0	0	1	0	4.498569886356563E+001	1.5114579E-001	1.5077402E-001	-1.588488087455125E-001	0	-3.7923455E-004	12	0	-2.3950273E-005	9.4916681E+002
2	0	0	1	0	4.504709886201454E+001	1.4807579E-001	1.4773227E-001	-1.596017655822690E-001	0	-3.8902427E-004	12	0	-2.3578332E-005	9.2563055E+002
2	0	0	1	0	4.510869886045839E+001	1.4499578E-001	1.4463256E-001	-1.603288536213137E-001	0	-3.9889175E-004	12	0	-2.3188773E-005	9.0209943E+002
2	0	0	1	0	4.517029885890224E+001	1.4191578E-001	1.4153484E-001	-1.610477138565234E-001	0	-4.0880323E-004	12	0	-2.2793862E-005	8.7883789E+002
2	0	0	1	0	4.523189885734610E+001	1.3883577E-001	1.3844822E-001	-1.616811225457653E-001	0	-4.1875610E-004	12	0	-2.2384464E-005	8.5630420E+002
2	0	0	1	0	4.529349885578995E+001	1.3575578E-001	1.3542058E-001	-1.622954087786104E-001	0	-4.2874724E-004	12	0	-2.1978138E-005	8.3440790E+002
2	0	0	1	0	4.535489885423885E+001	1.3268577E-001	1.3237794E-001	-1.628791980062095E-001	0	-4.3874278E-004	12	0	-2.1561613E-005	8.1273694E+002
2	0	0	1	0	4.541649885268271E+001	1.2960576E-001	1.2929156E-001	-1.634008371360700E-001	0	-4.4880479E-004	12	0	-2.1126350E-005	7.9125397E+002
2	0	0	1	0	4.547809885112656E+001	1.2652574E-001	1.2615708E-001	-1.639158570354473E-001	0	-4.5889840E-004	12	0	-2.0679145E-005	7.6964532E+002
2	0	0	1	0	4.553969884957041E+001	1.2344575E-001	1.2312501E-001	-1.644206272652067E-001	0	-4.6902325E-004	12	0	-2.0244292E-005	7.4884161E+002
2	0	0	1	0	4.560109884801932E+001	1.2037574E-001	1.2005913E-001	-1.649349944418507E-001	0	-4.7914629E-004	12	0	-1.9801952E-005	7.2791785E+002
2	0	0	1	0	4.566269884646317E+001	1.1729574E-001	1.1699359E-001	-1.654969982750676E-001	0	-4.8933498E-004	12	0	-1.9362089E-005	7.0692273E+002
2	0	0	1	0	4.572429884490703E+001	1.1421573E-001	1.1381356E-001	-1.660135561005069E-001	0	-4.9955695E-004	12	0	-1.8894594E-005	6.8556787E+002
2	0	0	1	0	4.578589884335088E+001	1.1113571E-001	1.1075633E-001	-1.665857414932894E-001	0	-5.0981273E-004	12	0	-1.8450426E-005	6.6486078E+002
2	0	0	1	0	4.584749884179473E+001	1.0805571E-001	1.0763954E-001	-1.671275274947197E-001	0	-5.2010245E-004	12	0	-1.7989529E-005	6.4405627E+002
2	0	0	1	0	4.590889884024364E+001	1.0498571E-001	1.0462531E-001	-1.676377913958969E-001	0	-5.3039106E-004	12	0	-1.7539156E-005	6.2411530E+002
2	0	0	1	0	4.597049883868749E+001	1.0190571E-001	1.0150425E-001	-1.680331756050388E-001	0	-5.4074073E-004	12	0	-1.7056082E-005	6.0407269E+002
2	0	0	1	0	4.603209883713134E+001	9.8825708E-002	9.8443583E-002	-1.683142256372427E-001	0	-5.5111083E-004	12	0	-1.6569455E-005	5.8487976E+002
2	0	0	1	0	4.609369883557520E+001	9.5745698E-002	9.5366232E-002	-1.685774590183813E-001	0	-5.6149776E-004	12	0	-1.6076598E-005	5.6571167E+002
2	0	0	1	0	4.615509883402410E+001	9.2675693E-002	9.2319019E-002	-1.689404853081847E-001	0	-5.7187042E-004	12	0	-1.5596421E-005	5.4645880E+002
2	0	0	1	0	4.621669883246796E+001	8.9595690E-002	8.9254722E-002	-1.693231584863526E-001	0	-5.8229954E-004	12	0	-1.5112892E-005	5.2712646E+002
2	0	0	1	0	4.627829883091181E+001	8.6515695E-002	8.6158738E-002	-1.697289807934905E-001	0	-5.9275323E-004	12	0	-1.4623634E-005	5.0762537E+002
2	0	0	1	0	4.633989882935566E+001	8.3435677E-002	8.3054818E-002	-1.701358242828808E-001	0	-6.0323143E-004	12	0	-1.4130600E-005	4.8816772E+002
2	0	0	1	0	4.640149882779951E+001	8.0355674E-002	7.9996251E-002	-1.705130503552460E-001	0	-6.1373360E-004	12	0	-1.3640405E-005	4.6915030E+002
2	0	0	1	0	4.646289882624842E+001	7.7285662E-002	7.6862447E-002	-1.709359665240378E-001	0	-6.2422617E-004	12	0	-1.3138557E-005	4.4965637E+002
2	0	0	1	0	4.652449882469227E+001	7.4205659E-002	7.3819816E-002	-1.713321527519012E-001	0	-6.3477800E-004	12	0	-1.2647708E-005	4.3085794E+002
2	0	0	1	0	4.658609882313613E+001	7.1125656E-002	7.0689149E-002	-1.717348465222077E-001	0	-6.4535433E-004	12	0	-1.2139790E-005	4.1161798E+002
2	0	0	1	0	4.664769882157998E+001	6.8045653E-002	6.7627423E-002	-1.721211975366410E-001	0	-6.5595447E-004	12	0	-1.1640113E-005	3.9290582E+002
2	0	0	1	0	4.670909882002888E+001	6.4975649E-002	6.4573295E-002	-1.724960698386706E-001	0	-6.6654338E-004	12	0	-1.1138640E-005	3.7434647E+002
2	0	0	1	0	4.677069881847274E+001	6.1895642E-002	6.1494354E-002	-1.728714274042394E-001	0	-6.7719026E-004	12	0	-1.0630617E-005	3.5572305E+002
2	0	0	1	0	4.683229881691659E+001	5.8815636E-002	5.8404434E-002	-1.732784450463081E-001	0	-6.8786100E-004	12	0	-1.0120229E-005	3.3705539E+002
2	0	0	1	0	4.689389881536044E+001	5.5735629E-002	5.5362932E-002	-1.736986492347251E-001	0	-6.9855730E-004	12	0	-9.6164667E-006	3.1872977E+002
2	0	0	1	0	4.695549881380430E+001	5.2655622E-002	5.2223042E-002	-1.741071639871980E-001	0	-7.0927938E-004	12	0	-9.0924059E-006	2.9994769E+002
2	0	0	1	0	4.701689881225320E+001	4.9585618E-002	4.9166691E-002	-1.744233297471016E-001	0	-7.1998866E-004	12	0	-8.5758174E-006	2.8188138E+002
2	0	0	1	0	4.707849881069706E+001	4.6505611E-002	4.6120308E-002	-1.745648541478625E-001	0	-7.3074677E-004	12	0	-8.0509853E-006	2.6420157E+002
2	0	0	1	0	4.714009880914091E+001	4.3425605E-002	4.3035172E-002	-1.745828647641994E-001	0	-7.4150920E-004	12	0	-7.5132034E-006	2.4650284E+002
2	0	0	1	0	4.720169880758476E+001	4.0345598E-002	3.9978139E-002	-1.744635505203109E-001	0	-7.5226836E-004	12	0	-6.9747280E-006	2.2914894E+002
2	0	0	1	0	4.726309880603367E+001	3.7275594E-002	3.6860909E-002	-1.743420271326839E-001	0	-7.6298497E-004	12	0	-6.4264054E-006	2.1142871E+002
2	0	0	1	0	4.732469880447752E+001	3.4195591E-002	3.3796575E-002	-1.742618219857152E-001	0	-7.7373016E-004	12	0	-5.8894525E-006	1.9394136E+002
2	0	0	1	0	4.738629880292137E+001	3.1115586E-002	3.0716607E-002	-1.742764314650347E-001	0	-7.8447373E-004	12	0	-5.3531808E-006	1.7625221E+002
2	0	0	1	0	4.744789880136523E+001	2.8035579E-002	2.7576709E-002	-1.743646644668719E-001	0	-7.9522037E-004	12	0	-4.8084034E-006	1.5815538E+002
2	0	0	1	0	4.750949879980908E+001	2.4955573E-002	2.4517095E-002	-1.745116856939883E-001	0	-8.0597401E-004	12	0	-4.2785196E-006	1.4048970E+002
2	0	0	1	0	4.757089879825799E+001	2.1885568E-002	2.1441121E-002	-1.746435690364443E-001	0	-8.1670115E-004	12	0	-3.7445539E-006	1.2277074E+002
2	0	0	1	0	4.763249879670184E+001	1.8805563E-002	1.8423114E-002	-1.748445099732656E-001	0	-8.2747365E-004	12	0	-3.2211804E-006	1.0536856E+002
2	0	0	1	0	4.769409879514569E+001	1.5725559E-002	1.5320344E-002	-1.750615168790333E-001	0	-8.3825871E-004	12	0	-2.6820026E-006	8.7514061E+001
2	0	0	1	0	4.775569879358954E+001	1.2645553E-002	1.2221431E-002	-1.753419019193165E-001	0	-8.4905984E-004	12	0	-2.1429289E-006	6.9700577E+001
2	0	0	1	0	4.781709879203845E+001	9.5755467E-003	9.1755958E-003	-1.756289132959590E-001	0	-8.5984345E-004	12	0	-1.6114999E-006	5.2244221E+001
2	0	0	1	0	4.787869879048230E+001	6.4955414E-003	6.1065438E-003	-1.759260561941918E-001	0	-8.7068009E-004	12	0	-1.0743001E-006	3.4710854E+001
2	0	0	1	0	4.794029878892616E+001	3.4155366E-003	3.0322927E-003	-1.761783198340297E-001	0	-8.8153291E-004	12	0	-5.3422423E-007	1.7211498E+001
2	0	0	1	0	4.800189878737001E+001	3.3553093E-004	-1.6109463E-004	-1.764175665114474E-001	0	-8.9240109E-004	12	0	2.8419924E-008	9.1314393E-001
2	0	0	1	0	4.806349878581386E+001	-2.7444754E-003	-3.4058024E-003	-1.765784839814364E-001	0	-9.0328191E-004	12	0	6.0139143E-007	1.9287754E+001
2	0	0	1	0	4.812489878426277E+001	-5.8144820E-003	-6.4966567E-003	-1.766725110362408E-001	0	-9.1413484E-004	12	0	1.1477806E-006	3.6772312E+001
2	0	0	1	0	4.818649878270662E+001	-8.8944901E-003	-9.5485216E-003	-1.767599031779685E-001	0	-9.2502817E-004	12	0	1.6877957E-006	5.4019726E+001
2	0	0	1	0	4.824809878115047E+001	-1.1974497E-002	-1.2620984E-002	-1.768362301241213E-001	0	-9.3592657E-004	12	0	2.2318472E-006	7.1371025E+001
2	0	0	1	0	4.830969877959433E+001	-1.5054504E-002	-1.5688624E-002	-1.769152265685690E-001	0	-9.4682944E-004	12	0	2.7755566E-006	8.8678764E+001
2	0	0	1	0	4.837109877804323E+001	-1.8124511E-002	-1.8789880E-002	-1.769814814521435E-001	0	-9.5770153E-004	12	0	3.3254607E-006	1.0616862E+002
2	0	0	1	0	4.843269877648709E+001	-2.1204518E-002	-2.1827107E-002	-1.770818008784278E-001	0	-9.6861413E-004	12	0	3.8651833E-006	1.2326003E+002
2	0	0	1	0	4.849429877493094E+001	-2.4284527E-002	-2.4967181E-002	-1.771699244349567E-001	0	-9.7953260E-004	12	0	4.4234334E-006	1.4092223E+002
2	0	0	1	0	4.855589877337479E+001	-2.7364532E-002	-2.8014842E-002	-1.771890047556259E-001	0	-9.9045469E-004	12	0	4.9639220E-006	1.5810712E+002
2	0	0	1	0	4.861749877181865E+001	-3.0444536E-002	-3.1071082E-002	-1.771559549065217E-001	0	-1.0013762E-003	12	0	5.5044270E-006	1.7538831E+002
2	0	0	1	0	4.867889877026755E+001	-3.3514544E-002	-3.4128252E-002	-1.771331635351348E-001	0	-1.0122600E-003	12	0	6.0452453E-006	1.9267003E+002
2	0	0	1	0	4.874049876871140E+001	-3.6594551E-002	-3.7269872E-002	-1.771486037203460E-001	0	-1.0231788E-003	12	0	6.6023058E-006	2.1038762E+002
2	0	0	1	0	4.880209876715526E+001	-3.9674558E-002	-4.0308721E-002	-1.772334077457138E-001	0	-1.0341007E-003	12	0	7.1440522E-006	2.2743298E+002
2	0	0	1	0	4.886369876559911E+001	-4.2754564E-002	-4.3405015E-002	-1.773284079453199E-001	0	-1.0450282E-003	12	0	7.6969418E-006	2.4477193E+002
2	0	0	1	0	4.892509876404802E+001	-4.5824576E-002	-4.6503242E-002	-1.774581093464072E-001	0	-1.0559274E-003	12	0	8.2523775E-006	2.6205194E+002
2	0	0	1	0	4.898669876249187E+001	-4.8904579E-002	-4.9584933E-002	-1.776000988845647E-001	0	-1.0668699E-003	12	0	8.8062889E-006	2.7919427E+002
2	0	0	1	0	4.904829876093572E+001	-5.1984586E-002	-5.2670721E-002	-1.777405698933712E-001	0	-1.0778215E-003	12	0	9.3617236E-006	2.9633484E+002
2	0	0	1	0	4.910989875937958E+001	-5.5064589E-002	-5.5734508E-002	-1.779100222085610E-001	0	-1.0887828E-003	12	0	9.9157278E-006	3.1327356E+002
2	0	0	1	0	4.917149875782343E+001	-5.8144603E-002	-5.8800325E-002	-1.781073981112173E-001	0	-1.0997554E-003	12	0	1.0472773E-005	3.3013971E+002
2	0	0	1	0	4.923289875627233E+001	-6.1214611E-002	-6.1866447E-002	-1.782802338692227E-001	0	-1.1107037E-003	12	0	1.1029565E-005	3.4701797E+002
2	0	0	1	0	4.929449875471619E+001	-6.4294614E-002	-6.4962946E-002	-1.784529328072795E-001	0	-1.1216982E-003	12	0	1.1592828E-005	3.6403406E+002
2	0	0	1	0	4.935609875316004E+001	-6.7374624E-002	-6.8021283E-002	-1.785391208587179E-001	0	-1.1327004E-003	12	0	1.2144460E-005	3.8098810E+002
2	0	0	1	0	4.941769875160389E+001	-7.0454627E-002	-7.1091689E-002	-1.785977252662811E-001	0	-1.1437072E-003	12	0	1.2696814E-005	3.9805484E+002
2	0	0	1	0	4.947909875005280E+001	-7.3524639E-002	-7.4180230E-002	-1.786352668164086E-001	0	-1.1546809E-003	12	0	1.3251205E-005	4.1526083E+002
2	0	0	1	0	4.954069874849665E+001	-7.6604642E-002	-7.7257752E-002	-1.787062161182451E-001	0	-1.1656937E-003	12	0	1.3806441E-005	4.3231711E+002
2	0	0	1	0	4.960229874694051E+001	-7.9684652E-002	-8.0369115E-002	-1.788152043590956E-001	0	-1.1767121E-003	12	0	1.4371220E-005	4.4945346E+002
2	0	0	1	0	4.966389874538436E+001	-8.2764655E-002	-8.3463430E-002	-1.789231493270487E-001	0	-1.1877368E-003	12	0	1.4933540E-005	4.6647641E+002
2	0	0	1	0	4.972549874382821E+001	-8.5844666E-002	-8.6573921E-002	-1.789916595065915E-001	0	-1.1987670E-003	12	0	1.5496009E-005	4.8367572E+002
2	0	0	1	0	4.978689874227712E+001	-8.8914670E-002	-8.9622416E-002	-1.790184693272340E-001	0	-1.2097646E-003	12	0	1.6044067E-005	5.0063223E+002
2	0	0	1	0	4.984849874072097E+001	-9.1994673E-002	-9.2651576E-002	-1.790438114312740E-001	0	-1.2207997E-003	12	0	1.6588690E-005	5.1747992E+002
2	0	0	1	0	4.991009873916482E+001	-9.5074676E-002	-9.5789753E-002	-1.790534832989523E-001	0	-1.2318358E-003	12	0	1.7151489E-005	5.3497845E+002
2	0	0	1	0	4.997169873760868E+001	-9.8154686E-002	-9.8843969E-002	-1.790680162079961E-001	0	-1.2428726E-003	12	0	1.7699793E-005	5.5199121E+002
2	0	0	1	0	5.000539873675734E+001	-9.9844120E-002	-1.0047296E-001	-1.790775944079671E-001	0	-1.2489108E-003	12	0	1.7992457E-005	5.6105829E+002
2	0	0	1	0	5.000579873674724E+001	-1.0015190E-001	-1.0085458E-001	-1.799668073654175E-001	0	-1.2489827E-003	12	0	1.8150477E-005	5.6040656E+002