mode	ox/red	error	control changes		time/s	control/V	Ewe/V	<I>/mA		(Q-Qo)/C	I Range		Pwe/W	Rwe/Ohm	
3	0	0	1	0	0.000000000000000E+000	0.0000000E+000	4.5001519E-001	0.000000000000000E+000	0	0.0000000E+000	14	0	0.0000000E+000	0.0000000E+000
3	0	0	0	0	2.999979924214131E+001	9.0028149E-001	4.4999608E-001	0.000000000000000E+000	0	0.0000000E+000	14	0	0.0000000E+000	0.0000000E+000
2	1	0	1	0	3.003059924136323E+001	8.9889687E-001	8.9878225E-001	1.199897720168033E-002	0	7.2278232E-007	13	0	1.0784468E-005	7.4904906E+004
2	1	0	1	0	3.006449924050685E+001	8.9720500E-001	8.9716846E-001	7.811858273399759E-003	0	1.0027031E-006	13	0	7.0085530E-006	1.1484700E+005
2	1	0	1	0	3.012609923895070E+001	8.9412487E-001	8.9410794E-001	4.978079460753002E-003	0	1.3841809E-006	13	0	4.4509402E-006	1.7960902E+005
2	1	0	1	0	3.018769923739455E+001	8.9104491E-001	8.9102638E-001	3.898251692911796E-003	0	1.6514730E-006	13	0	3.4734451E-006	2.2857077E+005
2	1	0	1	0	3.026449923545442E+001	8.8720447E-001	8.8714635E-001	3.175579202321220E-003	0	1.9146196E-006	13	0	2.8172035E-006	2.7936522E+005
2	1	0	1	0	3.034149923350924E+001	8.8335490E-001	8.8335478E-001	2.684912320942957E-003	0	2.1420628E-006	14	0	2.3717300E-006	3.2900694E+005
2	1	0	1	0	3.040309923195309E+001	8.8027483E-001	8.8023978E-001	2.424829478249083E-003	0	2.2975821E-006	14	0	2.1344313E-006	3.6301100E+005
2	1	0	1	0	3.046469923039695E+001	8.7719488E-001	8.7720454E-001	2.219161145375639E-003	0	2.4389449E-006	14	0	1.9466581E-006	3.9528653E+005
2	1	0	1	0	3.052609922884585E+001	8.7412483E-001	8.7412524E-001	2.050544896734424E-003	0	2.5684988E-006	14	0	1.7924331E-006	4.2628925E+005
2	1	0	1	0	3.058769922728970E+001	8.7104481E-001	8.7101632E-001	1.908579059908096E-003	0	2.6890757E-006	14	0	1.6624035E-006	4.5636900E+005
2	1	0	1	0	3.064929922573356E+001	8.6796486E-001	8.6796427E-001	1.784833663500296E-003	0	2.8014904E-006	14	0	1.5491719E-006	4.8629981E+005
2	1	0	1	0	3.071089922417741E+001	8.6488485E-001	8.6487168E-001	1.677429408394478E-003	0	2.9068940E-006	14	0	1.4507611E-006	5.1559350E+005
2	1	0	1	0	3.077249922262126E+001	8.6180478E-001	8.6175603E-001	1.583468560316874E-003	0	3.0061731E-006	14	0	1.3645636E-006	5.4422050E+005
2	1	0	1	0	3.083389922107017E+001	8.5873485E-001	8.5867137E-001	1.501599518673215E-003	0	3.0996653E-006	14	0	1.2893805E-006	5.7183781E+005
2	1	0	1	0	3.089549921951402E+001	8.5565490E-001	8.5562271E-001	1.424675177033260E-003	0	3.1887305E-006	14	0	1.2189844E-006	6.0057388E+005
2	1	0	1	0	3.095709921795788E+001	8.5257477E-001	8.5256654E-001	1.358049052184087E-003	0	3.2734279E-006	14	0	1.1578272E-006	6.2778775E+005
2	1	0	1	0	3.101869921640173E+001	8.4949481E-001	8.4948176E-001	1.296397363246538E-003	0	3.3541744E-006	14	0	1.1012659E-006	6.5526344E+005
2	1	0	1	0	3.108009921485063E+001	8.4642476E-001	8.4640908E-001	1.240213537045868E-003	0	3.4310785E-006	14	0	1.0497280E-006	6.8247044E+005
2	1	0	1	0	3.114169921329449E+001	8.4334481E-001	8.4335285E-001	1.188928907036760E-003	0	3.5050648E-006	14	0	1.0026865E-006	7.0933831E+005
2	1	0	1	0	3.120329921173834E+001	8.4026486E-001	8.4022230E-001	1.141310041695574E-003	0	3.5759679E-006	14	0	9.5895416E-007	7.3619113E+005
2	1	0	1	0	3.126489921018219E+001	8.3718479E-001	8.3718616E-001	1.099785177963605E-003	0	3.6440867E-006	14	0	9.2072491E-007	7.6122700E+005
2	1	0	1	0	3.132649920862605E+001	8.3410484E-001	8.3410138E-001	1.056276713330755E-003	0	3.7096538E-006	14	0	8.8104184E-007	7.8966181E+005
2	1	0	1	0	3.138789920707495E+001	8.3103484E-001	8.3102858E-001	1.018886137843459E-003	0	3.7725774E-006	14	0	8.4672348E-007	8.1562456E+005
2	1	0	1	0	3.144949920551881E+001	8.2795477E-001	8.2794046E-001	9.868879702906825E-004	0	3.8335684E-006	14	0	8.1708447E-007	8.3894069E+005
2	1	0	1	0	3.151109920396266E+001	8.2487476E-001	8.2484090E-001	9.546634784177842E-004	0	3.8924959E-006	14	0	7.8744546E-007	8.6401219E+005
2	1	0	1	0	3.157269920240651E+001	8.2179475E-001	8.2178771E-001	9.222300450593690E-004	0	3.9495235E-006	14	0	7.5787733E-007	8.9108756E+005
2	1	0	1	0	3.163409920085542E+001	8.1872475E-001	8.1868845E-001	8.974212563150905E-004	0	4.0045375E-006	14	0	7.3470841E-007	9.1226775E+005
2	1	0	1	0	3.169569919929927E+001	8.1564480E-001	8.1562555E-001	8.692408141950676E-004	0	4.0581831E-006	14	0	7.0897499E-007	9.3831944E+005
2	1	0	1	0	3.175729919774312E+001	8.1256479E-001	8.1257707E-001	8.425367774798458E-004	0	4.1101889E-006	14	0	6.8462606E-007	9.6444106E+005
2	1	0	1	0	3.181889919618698E+001	8.0948466E-001	8.0943304E-001	8.183171053227556E-004	0	4.1606518E-006	14	0	6.6237288E-007	9.8914350E+005
2	1	0	1	0	3.188049919463083E+001	8.0640477E-001	8.0645621E-001	7.957385563321789E-004	0	4.2096999E-006	14	0	6.4172832E-007	1.0134688E+006
2	1	0	1	0	3.194189919307973E+001	8.0333471E-001	8.0342311E-001	7.745706138526393E-004	0	4.2571828E-006	14	0	6.2230794E-007	1.0372497E+006
2	1	0	1	0	3.200349919152359E+001	8.0025470E-001	8.0025256E-001	7.555687247764948E-004	0	4.3036412E-006	14	0	6.0464578E-007	1.0591394E+006
2	1	0	1	0	3.206509918996744E+001	7.9717475E-001	7.9718089E-001	7.377547606682959E-004	0	4.3489354E-006	14	0	5.8812401E-007	1.0805500E+006
2	1	0	1	0	3.212669918841129E+001	7.9409474E-001	7.9411411E-001	7.200799024930926E-004	0	4.3931091E-006	14	0	5.7182564E-007	1.1028139E+006
2	1	0	1	0	3.218809918686020E+001	7.9102474E-001	7.9104507E-001	7.037829386723395E-004	0	4.4360854E-006	14	0	5.5672405E-007	1.1239901E+006
2	1	0	1	0	3.224969918530405E+001	7.8794461E-001	7.8804243E-001	6.880304175882496E-004	0	4.4782564E-006	14	0	5.4219714E-007	1.1453599E+006
2	1	0	1	0	3.231129918374791E+001	7.8486466E-001	7.8492212E-001	6.738130551324755E-004	0	4.5194638E-006	14	0	5.2889078E-007	1.1648960E+006
2	1	0	1	0	3.237289918219176E+001	7.8178471E-001	7.8180987E-001	6.577278807627779E-004	0	4.5597935E-006	14	0	5.1421813E-007	1.1886525E+006
2	1	0	1	0	3.243449918063561E+001	7.7870470E-001	7.7870148E-001	6.456720027183463E-004	0	4.5992629E-006	14	0	5.0278572E-007	1.2060326E+006
2	1	0	1	0	3.249589917908452E+001	7.7563471E-001	7.7564716E-001	6.353541134871809E-004	0	4.6377886E-006	14	0	4.9281061E-007	1.2208108E+006
2	1	0	1	0	3.255749917752837E+001	7.7255470E-001	7.7258360E-001	6.231097923492020E-004	0	4.6758059E-006	14	0	4.8140441E-007	1.2398836E+006
2	1	0	1	0	3.261909917597222E+001	7.6947469E-001	7.6951247E-001	6.127743919245041E-004	0	4.7132003E-006	14	0	4.7153753E-007	1.2557844E+006
2	1	0	1	0	3.268069917441608E+001	7.6639462E-001	7.6645076E-001	6.046820276437697E-004	0	4.7499771E-006	14	0	4.6345900E-007	1.2675270E+006
2	1	0	1	0	3.274209917286498E+001	7.6332468E-001	7.6336539E-001	5.910908143211650E-004	0	4.7858907E-006	14	0	4.5121826E-007	1.2914520E+006
2	1	0	1	0	3.280369917130884E+001	7.6024461E-001	7.6028663E-001	5.820994524996723E-004	0	4.8213105E-006	14	0	4.4256242E-007	1.3061113E+006
2	1	0	1	0	3.286529916975269E+001	7.5716466E-001	7.5722414E-001	5.712962795597441E-004	0	4.8561164E-006	14	0	4.3259934E-007	1.3254491E+006
2	1	0	1	0	3.292689916819654E+001	7.5408471E-001	7.5414526E-001	5.643806736292962E-004	0	4.8903275E-006	14	0	4.2562502E-007	1.3362351E+006
2	1	0	1	0	3.298849916664039E+001	7.5100464E-001	7.5107950E-001	5.551832618595192E-004	0	4.9240343E-006	14	0	4.1698678E-007	1.3528496E+006
2	1	0	1	0	3.304989916508930E+001	7.4793464E-001	7.4796653E-001	5.461811149240158E-004	0	4.9570663E-006	14	0	4.0852518E-007	1.3694478E+006
2	1	0	1	0	3.311149916353315E+001	7.4485457E-001	7.4492216E-001	5.410208685559387E-004	0	4.9897476E-006	14	0	4.0301845E-007	1.3768825E+006
2	1	0	1	0	3.317309916197701E+001	7.4177456E-001	7.4183393E-001	5.322850122158763E-004	0	5.0219451E-006	14	0	3.9486707E-007	1.3936780E+006
2	1	0	1	0	3.323469916042086E+001	7.3869461E-001	7.3872954E-001	5.252951490188921E-004	0	5.0537515E-006	14	0	3.8805103E-007	1.4063133E+006
2	1	0	1	0	3.329609915886977E+001	7.3562461E-001	7.3570400E-001	5.202391742509728E-004	0	5.0849899E-006	14	0	3.8274203E-007	1.4141650E+006
2	1	0	1	0	3.335769915731362E+001	7.3254460E-001	7.3258716E-001	5.122259103655154E-004	0	5.1159427E-006	14	0	3.7525012E-007	1.4302033E+006
2	1	0	1	0	3.341929915575747E+001	7.2946459E-001	7.2954285E-001	5.043672947315824E-004	0	5.1464676E-006	14	0	3.6795757E-007	1.4464515E+006
2	1	0	1	0	3.348089915420132E+001	7.2638458E-001	7.2644085E-001	4.991299418392187E-004	0	5.1766174E-006	14	0	3.6258837E-007	1.4554143E+006
2	1	0	1	0	3.354249915264518E+001	7.2330457E-001	7.2342485E-001	4.928110240177501E-004	0	5.2063369E-006	14	0	3.5651175E-007	1.4679559E+006
2	1	0	1	0	3.360389915109408E+001	7.2023457E-001	7.2030216E-001	4.862878396115806E-004	0	5.2355081E-006	14	0	3.5027418E-007	1.4812260E+006
2	1	0	1	0	3.366549914953794E+001	7.1715456E-001	7.1719217E-001	4.816406335788350E-004	0	5.2645619E-006	14	0	3.4542890E-007	1.4890608E+006
2	1	0	1	0	3.372709914798179E+001	7.1407455E-001	7.1415281E-001	4.771178391676752E-004	0	5.2932924E-006	14	0	3.4073506E-007	1.4968059E+006
2	1	0	1	0	3.378869914642564E+001	7.1099460E-001	7.1103400E-001	4.730412849481272E-004	0	5.3217091E-006	14	0	3.3634845E-007	1.5031119E+006
2	1	0	1	0	3.385009914487455E+001	7.0792454E-001	7.0793778E-001	4.680215190424555E-004	0	5.3497015E-006	14	0	3.3133011E-007	1.5126180E+006
2	1	0	1	0	3.391169914331840E+001	7.0484459E-001	7.0488459E-001	4.653369098399302E-004	0	5.3775293E-006	14	0	3.2800881E-007	1.5147834E+006
2	1	0	1	0	3.397329914176225E+001	7.0176464E-001	7.0176470E-001	4.598906112786264E-004	0	5.4051243E-006	14	0	3.2273499E-007	1.5259383E+006
2	1	0	1	0	3.403489914020611E+001	6.9868451E-001	6.9874614E-001	4.561298058067438E-004	0	5.4324832E-006	14	0	3.1871895E-007	1.5319020E+006
2	1	0	1	0	3.409649913864996E+001	6.9560456E-001	6.9565058E-001	4.529880426676633E-004	0	5.4596117E-006	14	0	3.1512138E-007	1.5356930E+006
2	1	0	1	0	3.415789913709887E+001	6.9253457E-001	6.9253725E-001	4.496579221150154E-004	0	5.4863876E-006	14	0	3.1140485E-007	1.5401424E+006
2	1	0	1	0	3.421949913554272E+001	6.8945456E-001	6.8948913E-001	4.457801139591193E-004	0	5.5130818E-006	14	0	3.0736055E-007	1.5467023E+006
2	1	0	1	0	3.428109913398657E+001	6.8637455E-001	6.8643349E-001	4.421599104870917E-004	0	5.5395581E-006	14	0	3.0351336E-007	1.5524553E+006
2	1	0	1	0	3.434269913243043E+001	6.8329453E-001	6.8333977E-001	4.363042032308317E-004	0	5.5657847E-006	14	0	2.9814402E-007	1.5662003E+006
2	1	0	1	0	3.440419913087680E+001	6.8022013E-001	6.8030846E-001	4.348902871424290E-004	0	5.5917089E-006	14	0	2.9585954E-007	1.5643220E+006
2	1	0	1	0	3.446569912932318E+001	6.7714560E-001	6.7721063E-001	4.316366239111458E-004	0	5.6174304E-006	14	0	2.9230890E-007	1.5689369E+006
2	1	0	1	0	3.452729912776704E+001	6.7406559E-001	6.7412388E-001	4.257291279380470E-004	0	5.6429567E-006	14	0	2.8699418E-007	1.5834573E+006
2	1	0	1	0	3.458889912621089E+001	6.7098558E-001	6.7105180E-001	4.251162847508814E-004	0	5.6682566E-006	14	0	2.8527504E-007	1.5785135E+006
2	1	0	1	0	3.465049912465474E+001	6.6790563E-001	6.6792548E-001	4.219023434331262E-004	0	5.6933959E-006	14	0	2.8179932E-007	1.5831281E+006
2	1	0	1	0	3.471189912310365E+001	6.6483557E-001	6.6484070E-001	4.188494876796304E-004	0	5.7182556E-006	14	0	2.7846818E-007	1.5873021E+006
2	1	0	1	0	3.477349912154750E+001	6.6175562E-001	6.6177833E-001	4.164819883830835E-004	0	5.7430734E-006	14	0	2.7561876E-007	1.5889723E+006
2	1	0	1	0	3.483509911999136E+001	6.5867561E-001	6.5869033E-001	4.127717420604384E-004	0	5.7677007E-006	14	0	2.7188875E-007	1.5957738E+006
2	1	0	1	0	3.489669911843521E+001	6.5559554E-001	6.5563118E-001	4.104487541250080E-004	0	5.7921152E-006	14	0	2.6910300E-007	1.5973521E+006
2	1	0	1	0	3.495829911687906E+001	6.5251559E-001	6.5250087E-001	4.084085756939216E-004	0	5.8163560E-006	14	0	2.6648695E-007	1.5976669E+006
2	1	0	1	0	3.501969911532797E+001	6.4944553E-001	6.4949584E-001	4.051577942246103E-004	0	5.8403612E-006	14	0	2.6314831E-007	1.6030689E+006
2	1	0	1	0	3.508129911377182E+001	6.4636552E-001	6.4642483E-001	4.030722633341635E-004	0	5.8643418E-006	14	0	2.6055591E-007	1.6037443E+006
2	1	0	1	0	3.514289911221567E+001	6.4328551E-001	6.4335340E-001	4.008644140537010E-004	0	5.8881351E-006	14	0	2.5789748E-007	1.6049153E+006
2	1	0	1	0	3.520449911065953E+001	6.4020556E-001	6.4023602E-001	3.971076108557018E-004	0	5.9117629E-006	14	0	2.5424259E-007	1.6122481E+006
2	1	0	1	0	3.526589910910843E+001	6.3713557E-001	6.3717824E-001	3.953939609240958E-004	0	5.9351892E-006	14	0	2.5193643E-007	1.6115023E+006
2	1	0	1	0	3.532749910755228E+001	6.3405550E-001	6.3411844E-001	3.920099358727001E-004	0	5.9585045E-006	14	0	2.4858073E-007	1.6176081E+006
2	1	0	1	0	3.538909910599614E+001	6.3097554E-001	6.3105994E-001	3.910199096505596E-004	0	5.9816125E-006	14	0	2.4675700E-007	1.6138819E+006
2	1	0	1	0	3.545069910443999E+001	6.2789553E-001	6.2791520E-001	3.893420031490851E-004	0	6.0046441E-006	14	0	2.4447377E-007	1.6127600E+006
2	1	0	1	0	3.551229910288384E+001	6.2481552E-001	6.2481707E-001	3.881725823154207E-004	0	6.0275775E-006	14	0	2.4253686E-007	1.6096374E+006
2	1	0	1	0	3.557369910133275E+001	6.2174553E-001	6.2173623E-001	3.860756465709964E-004	0	6.0502630E-006	14	0	2.4003722E-007	1.6104000E+006
2	1	0	1	0	3.563529909977660E+001	6.1866552E-001	6.1866403E-001	3.847758585849782E-004	0	6.0729262E-006	14	0	2.3804698E-007	1.6078556E+006
2	1	0	1	0	3.569689909822046E+001	6.1558557E-001	6.1559665E-001	3.800604290636689E-004	0	6.0954367E-006	14	0	2.3396393E-007	1.6197336E+006
2	1	0	1	0	3.575849909666431E+001	6.1250550E-001	6.1250991E-001	3.791877449271387E-004	0	6.1178030E-006	14	0	2.3225626E-007	1.6153210E+006
2	1	0	1	0	3.581989909511321E+001	6.0943550E-001	6.0944384E-001	3.762528669016328E-004	0	6.1399642E-006	14	0	2.2930499E-007	1.6197720E+006
2	1	0	1	0	3.588149909355707E+001	6.0635549E-001	6.0643196E-001	3.721144753029426E-004	0	6.1620444E-006	14	0	2.2566211E-007	1.6296920E+006
2	1	0	1	0	3.594309909200092E+001	6.0327548E-001	6.0329312E-001	3.716850923810187E-004	0	6.1839633E-006	14	0	2.2423507E-007	1.6231298E+006
2	1	0	1	0	3.600469909044477E+001	6.0019553E-001	6.0016692E-001	3.698962230190544E-004	0	6.2057616E-006	14	0	2.2199947E-007	1.6225279E+006
2	1	0	1	0	3.606629908888863E+001	5.9711546E-001	5.9715128E-001	3.675173066779907E-004	0	6.2274444E-006	14	0	2.1946343E-007	1.6248249E+006
2	1	0	1	0	3.612769908733753E+001	5.9404552E-001	5.9408307E-001	3.644977953725216E-004	0	6.2489271E-006	14	0	2.1654196E-007	1.6298674E+006
2	1	0	1	0	3.618929908578139E+001	5.9096539E-001	5.9098667E-001	3.628464739860355E-004	0	6.2703102E-006	14	0	2.1443743E-007	1.6287513E+006
2	1	0	1	0	3.625089908422524E+001	5.8788544E-001	5.8792526E-001	3.612035662116962E-004	0	6.2915537E-006	14	0	2.1236070E-007	1.6276840E+006
2	1	0	1	0	3.631249908266909E+001	5.8480543E-001	5.8476955E-001	3.593272989209397E-004	0	6.3126818E-006	14	0	2.1012366E-007	1.6274009E+006
2	1	0	1	0	3.637389908111800E+001	5.8173543E-001	5.8173263E-001	3.567342358981317E-004	0	6.3335501E-006	14	0	2.0752394E-007	1.6307171E+006
2	1	0	1	0	3.643549907956185E+001	5.7865542E-001	5.7866687E-001	3.534113148695303E-004	0	6.3543816E-006	14	0	2.0450742E-007	1.6373750E+006
2	1	0	1	0	3.649709907800570E+001	5.7557547E-001	5.7557535E-001	3.519319724821154E-004	0	6.3750836E-006	14	0	2.0256337E-007	1.6354734E+006
2	1	0	1	0	3.655869907644956E+001	5.7249552E-001	5.7247573E-001	3.516716073384361E-004	0	6.3956440E-006	14	0	2.0132346E-007	1.6278703E+006
2	1	0	1	0	3.662029907489341E+001	5.6941539E-001	5.6941080E-001	3.467832030588374E-004	0	6.4160899E-006	14	0	1.9746210E-007	1.6419791E+006
2	1	0	1	0	3.668169907334232E+001	5.6634545E-001	5.6631315E-001	3.423842135517130E-004	0	6.4362825E-006	14	0	1.9389668E-007	1.6540283E+006
2	1	0	1	0	3.674329907178617E+001	5.6326544E-001	5.6326222E-001	3.415165571589327E-004	0	6.4563715E-006	14	0	1.9236337E-007	1.6492970E+006
2	1	0	1	0	3.680489907023002E+001	5.6018543E-001	5.6019831E-001	3.382400602705141E-004	0	6.4762776E-006	14	0	1.8948151E-007	1.6562151E+006
2	1	0	1	0	3.686649906867387E+001	5.5710542E-001	5.5713665E-001	3.344455136713590E-004	0	6.4959563E-006	14	0	1.8633186E-007	1.6658518E+006
2	1	0	1	0	3.692789906712278E+001	5.5403543E-001	5.5404377E-001	3.331798233993030E-004	0	6.5153827E-006	14	0	1.8459620E-007	1.6628971E+006
2	1	0	1	0	3.698949906556663E+001	5.5095541E-001	5.5091923E-001	3.289154209184758E-004	0	6.5346480E-006	14	0	1.8120583E-007	1.6749571E+006
2	1	0	1	0	3.705109906401049E+001	5.4787534E-001	5.4785138E-001	3.257319778567497E-004	0	6.5536638E-006	14	0	1.7845271E-007	1.6819085E+006
2	1	0	1	0	3.711269906245434E+001	5.4479539E-001	5.4477787E-001	3.202256106664470E-004	0	6.5724889E-006	14	0	1.7445183E-007	1.7012314E+006
2	1	0	1	0	3.717429906089819E+001	5.4171538E-001	5.4165900E-001	3.180855182838031E-004	0	6.5910767E-006	14	0	1.7229388E-007	1.7028723E+006
2	1	0	1	0	3.723569905934710E+001	5.3864539E-001	5.3863305E-001	3.134223864579488E-004	0	6.6093435E-006	14	0	1.6881965E-007	1.7185533E+006
2	1	0	1	0	3.729729905779095E+001	5.3556538E-001	5.3554398E-001	3.099665481755675E-004	0	6.6274492E-006	14	0	1.6600072E-007	1.7277476E+006
2	1	0	1	0	3.735889905623480E+001	5.3248537E-001	5.3247368E-001	3.063146884497384E-004	0	6.6453067E-006	14	0	1.6310452E-007	1.7383224E+006
2	1	0	1	0	3.742049905467866E+001	5.2940536E-001	5.2941847E-001	3.005725246258513E-004	0	6.6628918E-006	14	0	1.5912865E-007	1.7613668E+006
2	1	0	1	0	3.748189905312756E+001	5.2633530E-001	5.2627158E-001	2.929513236100325E-004	0	6.6800044E-006	14	0	1.5417196E-007	1.7964473E+006
2	1	0	1	0	3.754349905157142E+001	5.2325535E-001	5.2326196E-001	2.882960325864383E-004	0	6.6967696E-006	14	0	1.5085435E-007	1.8150161E+006
2	1	0	1	0	3.760509905001527E+001	5.2017534E-001	5.2015382E-001	2.818729273832738E-004	0	6.7131587E-006	14	0	1.4661728E-007	1.8453486E+006
2	1	0	1	0	3.766669904845912E+001	5.1709533E-001	5.1708257E-001	2.734053748049089E-004	0	6.7291198E-006	14	0	1.4137315E-007	1.8912670E+006
2	1	0	1	0	3.772829904690298E+001	5.1401538E-001	5.1402014E-001	2.665413781989336E-004	0	6.7446431E-006	14	0	1.3700763E-007	1.9284816E+006
2	1	0	1	0	3.778969904535188E+001	5.1094532E-001	5.1090258E-001	2.582926290381569E-004	0	6.7596034E-006	14	0	1.3196237E-007	1.9779991E+006
2	1	0	1	0	3.785129904379573E+001	5.0786537E-001	5.0782740E-001	2.504936736632865E-004	0	6.7740784E-006	14	0	1.2720756E-007	2.0273063E+006
2	1	0	1	0	3.791289904223959E+001	5.0478530E-001	5.0473094E-001	2.394630941484582E-004	0	6.7879819E-006	14	0	1.2086443E-007	2.1077608E+006
2	1	0	1	0	3.797449904068344E+001	5.0170529E-001	5.0162190E-001	2.291787776966580E-004	0	6.8012159E-006	14	0	1.1496110E-007	2.1887800E+006
2	1	0	1	0	3.803589903913235E+001	4.9863532E-001	4.9858528E-001	2.163829986704616E-004	0	6.8136496E-006	14	0	1.0788538E-007	2.3041795E+006
2	1	0	1	0	3.809749903757620E+001	4.9555534E-001	4.9551052E-001	2.034672703643357E-004	0	6.8254067E-006	14	0	1.0082017E-007	2.4353328E+006
2	1	0	1	0	3.815909903602005E+001	4.9247530E-001	4.9243215E-001	1.906775462187931E-004	0	6.8363329E-006	14	0	9.3895757E-008	2.5825388E+006
2	1	0	1	0	3.822069903446391E+001	4.8939526E-001	4.8932630E-001	1.736083693646903E-004	0	6.8463196E-006	14	0	8.4951139E-008	2.8185640E+006
2	1	0	1	0	3.828229903290776E+001	4.8631531E-001	4.8625627E-001	1.554271483365662E-004	0	6.8552840E-006	14	0	7.5577425E-008	3.1285158E+006
2	1	0	1	0	3.834369903135666E+001	4.8324522E-001	4.8319945E-001	1.378234075873281E-004	0	6.8630393E-006	14	0	6.6596193E-008	3.5059318E+006
2	1	0	1	0	3.840529902980052E+001	4.8016527E-001	4.8014590E-001	1.167213905511086E-004	0	6.8696158E-006	14	0	5.6043298E-008	4.1136068E+006
2	1	0	1	0	3.846689902824437E+001	4.7708529E-001	4.7699568E-001	9.094222973498548E-005	0	6.8747631E-006	14	0	4.3379050E-008	5.2450405E+006
2	1	0	1	0	3.852849902668822E+001	4.7400528E-001	4.7397435E-001	6.690554614817445E-005	0	6.8783688E-006	14	0	3.1711512E-008	7.0842310E+006
2	1	0	1	0	3.858989902513713E+001	4.7093529E-001	4.7081274E-001	3.664190260207708E-005	0	6.8802487E-006	14	0	1.7251475E-008	1.2849025E+007
2	1	0	1	0	3.865149902358098E+001	4.6785522E-001	4.6775627E-001	6.544561997159663E-006	0	6.8802588E-006	14	0	3.0612599E-009	7.1472512E+007
2	1	0	1	0	3.871309902202484E+001	4.6477526E-001	4.6469358E-001	-2.902546252534047E-005	0	6.8781555E-006	14	0	-1.3487946E-008	1.6009859E+007
2	0	0	1	0	3.877469902046869E+001	4.6169522E-001	4.6162158E-001	-6.912730147484447E-005	0	6.8737427E-006	14	0	-3.1910655E-008	6.6778475E+006
2	0	0	1	0	3.883629901891254E+001	4.5861521E-001	4.5853657E-001	-1.121243603292828E-004	0	6.8666927E-006	14	0	-5.1413117E-008	4.0895355E+006
2	0	0	1	0	3.889769901736145E+001	4.5554522E-001	4.5547152E-001	-1.602865160749362E-004	0	6.8568042E-006	14	0	-7.3005943E-008	2.8416085E+006
2	0	0	1	0	3.895929901580530E+001	4.5246524E-001	4.5236853E-001	-2.136533402639562E-004	0	6.8437562E-006	14	0	-9.6650048E-008	2.1173015E+006
2	0	0	1	0	3.902089901424915E+001	4.4938523E-001	4.4928259E-001	-2.722980269386006E-004	0	6.8271734E-006	14	0	-1.2233876E-007	1.6499664E+006
2	0	0	1	0	3.908249901269301E+001	4.4630519E-001	4.4619766E-001	-3.407286507321793E-004	0	6.8066392E-006	14	0	-1.5203233E-007	1.3095396E+006
2	0	0	1	0	3.914389901114191E+001	4.4323522E-001	4.4314787E-001	-4.142480069289777E-004	0	6.7818137E-006	14	0	-1.8357312E-007	1.0697646E+006
2	0	0	1	0	3.920549900958576E+001	4.4015518E-001	4.4007275E-001	-4.941947861213190E-004	0	6.7521123E-006	14	0	-2.1748166E-007	8.9048438E+005
2	0	0	1	0	3.926709900802962E+001	4.3707520E-001	4.3695217E-001	-5.870511359968335E-004	0	6.7170122E-006	14	0	-2.5651326E-007	7.4431706E+005
2	0	0	1	0	3.932869900647347E+001	4.3399522E-001	4.3390420E-001	-6.870219581125731E-004	0	6.6758989E-006	14	0	-2.9810172E-007	6.3157256E+005
2	0	0	1	0	3.939029900491732E+001	4.3091515E-001	4.3077818E-001	-7.981167292818315E-004	0	6.6281723E-006	14	0	-3.4381128E-007	5.3974331E+005
2	0	0	1	0	3.945169900336623E+001	4.2784515E-001	4.2770305E-001	-9.239263517328887E-004	0	6.5732174E-006	14	0	-3.9516613E-007	4.6291900E+005
2	0	0	1	0	3.951329900181008E+001	4.2476514E-001	4.2459729E-001	-1.060038476657862E-003	0	6.5099371E-006	14	0	-4.5008946E-007	4.0054894E+005
2	0	0	1	0	3.957489900025394E+001	4.2168519E-001	4.2150944E-001	-1.212918201381068E-003	0	6.4377077E-006	14	0	-5.1125647E-007	3.4751678E+005
2	0	0	1	0	3.963649899869779E+001	4.1860515E-001	4.1843027E-001	-1.381519672777897E-003	0	6.3555253E-006	14	0	-5.7806966E-007	3.0287681E+005
2	0	0	1	0	3.969789899714669E+001	4.1553515E-001	4.1536853E-001	-1.564826616535911E-003	0	6.2626414E-006	14	0	-6.4997971E-007	2.6544059E+005
2	0	0	1	0	3.975949899559055E+001	4.1245517E-001	4.1224533E-001	-1.769396309133073E-003	0	6.1573996E-006	14	0	-7.2942538E-007	2.3298644E+005
2	0	0	1	0	3.982109899403440E+001	4.0937510E-001	4.0921748E-001	-1.997289251279082E-003	0	6.0387119E-006	14	0	-8.1732566E-007	2.0488644E+005
2	0	0	1	0	3.988269899247825E+001	4.0629515E-001	4.0612453E-001	-2.245367935827285E-003	0	5.9050903E-006	14	0	-9.1189901E-007	1.8087216E+005
2	0	0	1	0	3.994429899092211E+001	4.0321514E-001	4.0307039E-001	-2.526171999473340E-003	0	5.7550260E-006	14	0	-1.0182251E-006	1.5955778E+005
2	0	0	1	0	4.000569898937101E+001	4.0014511E-001	3.9998043E-001	-2.827499987785989E-003	0	5.5873888E-006	14	0	-1.1309446E-006	1.4146081E+005
2	0	0	1	0	4.006729898781487E+001	3.9706510E-001	3.9687979E-001	-3.170796637038290E-003	0	5.3991639E-006	14	0	-1.2584251E-006	1.2516722E+005
2	0	0	1	0	4.012889898625872E+001	3.9398509E-001	3.9378971E-001	-3.544957808144997E-003	0	5.1886627E-006	14	0	-1.3959680E-006	1.1108445E+005
2	0	0	1	0	4.019049898470257E+001	3.9090514E-001	3.9061651E-001	-3.955247006563481E-003	0	4.9536397E-006	14	0	-1.5449848E-006	9.8759070E+004
2	0	0	1	0	4.025189898315148E+001	3.8783506E-001	3.8756517E-001	-4.411315331440263E-003	0	4.6926225E-006	14	0	-1.7096721E-006	8.7857055E+004
2	0	0	1	0	4.031349898159533E+001	3.8475507E-001	3.8451535E-001	-4.903720291142395E-003	0	4.4012413E-006	14	0	-1.8855557E-006	7.8412984E+004
2	0	0	1	0	4.037509898003918E+001	3.8167509E-001	3.8140792E-001	-5.447335349434201E-003	0	4.0776213E-006	14	0	-2.0776567E-006	7.0017336E+004
2	0	0	1	0	4.043669897848304E+001	3.7859508E-001	3.7831876E-001	-6.051654986639857E-003	0	3.7184518E-006	14	0	-2.2894546E-006	6.2514926E+004
2	0	0	1	0	4.049829897692689E+001	3.7551507E-001	3.7528521E-001	-6.703269846228807E-003	0	3.3202823E-006	14	0	-2.5156380E-006	5.5985395E+004
2	0	0	1	0	4.055969897537580E+001	3.7244508E-001	3.7223044E-001	-7.415461719848394E-003	0	2.8812772E-006	14	0	-2.7602605E-006	5.0196527E+004
2	0	0	1	0	4.062129897381965E+001	3.6936510E-001	3.6911273E-001	-8.203607974120890E-003	0	2.3942539E-006	14	0	-3.0280562E-006	4.4993949E+004
2	0	0	1	0	4.068289897226350E+001	3.6628509E-001	3.6602977E-001	-9.060083674801919E-003	0	1.8561682E-006	14	0	-3.3162603E-006	4.0400262E+004
2	0	0	1	0	4.074449897070735E+001	3.6320505E-001	3.6297926E-001	-1.000058917205814E-002	0	1.2624229E-006	14	0	-3.6300064E-006	3.6295789E+004
2	0	0	1	0	4.082129896876722E+001	3.5936403E-001	3.5909054E-001	-1.129111386072448E-002	0	4.2560100E-007	14	0	-4.0545319E-006	3.1802934E+004
2	0	0	1	0	4.089829896682204E+001	3.5551506E-001	3.5529473E-001	-1.270112400039433E-002	0	-4.9924205E-007	13	0	-4.5126426E-006	2.7973488E+004
2	0	0	1	0	4.095989896526589E+001	3.5243502E-001	3.5210904E-001	-1.398273196380743E-002	0	-1.3302821E-006	13	0	-4.9234463E-006	2.5181705E+004
2	0	0	1	0	4.102149896370975E+001	3.4935504E-001	3.4908044E-001	-1.536279820235255E-002	0	-2.2435504E-006	13	0	-5.3628523E-006	2.2722451E+004
2	0	0	1	0	4.108289896215865E+001	3.4628505E-001	3.4598646E-001	-1.683318190990202E-002	0	-3.2418559E-006	13	0	-5.8240530E-006	2.0553836E+004
2	0	0	1	0	4.114449896060250E+001	3.4320506E-001	3.4293008E-001	-1.842193202790154E-002	0	-4.3380173E-006	13	0	-6.3174348E-006	1.8615316E+004
2	0	0	1	0	4.120609895904636E+001	3.4012499E-001	3.3980492E-001	-2.011580130044971E-002	0	-5.5356222E-006	13	0	-6.8354484E-006	1.6892438E+004
2	0	0	1	0	4.126769895749021E+001	3.3704501E-001	3.3677217E-001	-2.193657447672348E-002	0	-6.8420804E-006	13	0	-7.3876276E-006	1.5352086E+004
2	0	0	1	0	4.132929895593406E+001	3.3396503E-001	3.3366901E-001	-2.387796472415826E-002	0	-8.2648257E-006	13	0	-7.9673364E-006	1.3973930E+004
2	0	0	1	0	4.139069895438297E+001	3.3089498E-001	3.3062986E-001	-2.597132505269746E-002	0	-9.8074743E-006	13	0	-8.5868951E-006	1.2730573E+004
2	0	0	1	0	4.145229895282682E+001	3.2781497E-001	3.2754341E-001	-2.825219911271069E-002	0	-1.1490723E-005	13	0	-9.2538212E-006	1.1593555E+004
2	0	0	1	0	4.151389895127068E+001	3.2473499E-001	3.2443231E-001	-3.065577351983455E-002	0	-1.3318559E-005	13	0	-9.9457238E-006	1.0583074E+004
2	0	0	1	0	4.157549894971453E+001	3.2165498E-001	3.2142049E-001	-3.318627471698976E-002	0	-1.5299138E-005	13	0	-1.0666748E-005	9.6853438E+003
2	0	0	1	0	4.163689894816343E+001	3.1858498E-001	3.1828102E-001	-3.588818553634221E-002	0	-1.7434464E-005	13	0	-1.1422529E-005	8.8686855E+003
2	0	0	1	0	4.169849894660729E+001	3.1550497E-001	3.1520972E-001	-3.871308528109030E-002	0	-1.9747282E-005	13	0	-1.2202740E-005	8.1422007E+003
2	0	0	1	0	4.176009894505114E+001	3.1242499E-001	3.1213838E-001	-4.169853177187854E-002	0	-2.2239947E-005	13	0	-1.3015712E-005	7.4855962E+003
2	0	0	1	0	4.182169894349499E+001	3.0934495E-001	3.0907151E-001	-4.488705633031564E-002	0	-2.4923205E-005	13	0	-1.3873310E-005	6.8855376E+003
2	0	0	1	0	4.188329894193885E+001	3.0626500E-001	3.0601659E-001	-4.817056708001499E-002	0	-2.7806558E-005	13	0	-1.4740993E-005	6.3527715E+003
2	0	0	1	0	4.194469894038775E+001	3.0319494E-001	3.0290872E-001	-5.160681820142021E-002	0	-3.0887582E-005	13	0	-1.5632155E-005	5.8695483E+003
2	0	0	1	0	4.200629893883161E+001	3.0011493E-001	2.9980621E-001	-5.519103950622972E-002	0	-3.4195167E-005	13	0	-1.6546615E-005	5.4321538E+003
2	0	0	1	0	4.206789893727546E+001	2.9703492E-001	2.9673141E-001	-5.887348005780757E-002	0	-3.7727434E-005	13	0	-1.7469611E-005	5.0401543E+003
2	0	0	1	0	4.212949893571931E+001	2.9395494E-001	2.9361889E-001	-6.267572109475733E-002	0	-4.1490268E-005	13	0	-1.8402776E-005	4.6847310E+003
2	0	0	1	0	4.219089893416822E+001	2.9088497E-001	2.9059088E-001	-6.661280927011975E-002	0	-4.5479315E-005	13	0	-1.9357076E-005	4.3623872E+003
2	0	0	1	0	4.225249893261207E+001	2.8780490E-001	2.8751567E-001	-7.067780842605442E-002	0	-4.9728696E-005	13	0	-2.0320977E-005	4.0679766E+003
2	0	0	1	0	4.231409893105592E+001	2.8472495E-001	2.8445077E-001	-7.484966191056142E-002	0	-5.4231845E-005	13	0	-2.1291044E-005	3.8002947E+003
2	0	0	1	0	4.237569892949978E+001	2.8164491E-001	2.8137466E-001	-7.908641202037470E-002	0	-5.8994534E-005	13	0	-2.2252912E-005	3.5578130E+003
2	0	0	1	0	4.243729892794363E+001	2.7856490E-001	2.7825820E-001	-8.344398072298076E-002	0	-6.4022577E-005	13	0	-2.3218972E-005	3.3346709E+003
2	0	0	1	0	4.249869892639254E+001	2.7549490E-001	2.7515370E-001	-8.782834898347813E-002	0	-6.9302638E-005	13	0	-2.4166295E-005	3.1328574E+003
2	0	0	1	0	4.256029892483639E+001	2.7241489E-001	2.7210599E-001	-9.222085408742142E-002	0	-7.4870892E-005	13	0	-2.5093846E-005	2.9505906E+003
2	0	0	1	0	4.262189892328024E+001	2.6933491E-001	2.6897755E-001	-9.670405532637671E-002	0	-8.0712714E-005	13	0	-2.6011219E-005	2.7814507E+003
2	0	0	1	0	4.268349892172409E+001	2.6625487E-001	2.6596251E-001	-1.011280979283442E-001	0	-8.6828913E-005	13	0	-2.6896283E-005	2.6299565E+003
2	0	0	1	0	4.274489892017300E+001	2.6318491E-001	2.6286501E-001	-1.055454497015846E-001	0	-9.3197283E-005	13	0	-2.7744205E-005	2.4905386E+003
2	0	0	1	0	4.281879891830613E+001	2.5949019E-001	2.5920114E-001	-1.107958545124800E-001	0	-1.0125432E-004	13	0	-2.8718412E-005	2.3394480E+003
2	0	0	1	0	4.289269891643926E+001	2.5579485E-001	2.5545651E-001	-1.160395159291155E-001	0	-1.0964038E-004	12	0	-2.9643050E-005	2.2014614E+003
2	0	0	1	0	4.295429891488311E+001	2.5271487E-001	2.5243834E-001	-1.203676950837311E-001	0	-1.1694610E-004	12	0	-3.0385421E-005	2.0972266E+003
2	0	0	1	0	4.301589891332696E+001	2.4963485E-001	2.4930404E-001	-1.247403429408389E-001	0	-1.2451973E-004	12	0	-3.1098272E-005	1.9985839E+003
2	0	0	1	0	4.307729891177587E+001	2.4656487E-001	2.4627118E-001	-1.289523698297471E-001	0	-1.3233234E-004	12	0	-3.1757252E-005	1.9097841E+003
2	0	0	1	0	4.313889891021972E+001	2.4348484E-001	2.4321686E-001	-1.330996449205030E-001	0	-1.4042831E-004	12	0	-3.2372078E-005	1.8273291E+003
2	0	0	1	0	4.320049890866358E+001	2.4040486E-001	2.4009319E-001	-1.372442732141308E-001	0	-1.4877942E-004	12	0	-3.2951415E-005	1.7493859E+003
2	0	0	1	0	4.326209890710743E+001	2.3732485E-001	2.3705690E-001	-1.412765002392873E-001	0	-1.5738234E-004	12	0	-3.3490567E-005	1.6779641E+003
2	0	0	1	0	4.332369890555128E+001	2.3424482E-001	2.3389354E-001	-1.452393057985713E-001	0	-1.6623177E-004	12	0	-3.3970537E-005	1.6104011E+003
2	0	0	1	0	4.338509890400019E+001	2.3117484E-001	2.3081593E-001	-1.489963427282879E-001	0	-1.7528860E-004	12	0	-3.4390730E-005	1.5491382E+003
2	0	0	1	0	4.344669890244404E+001	2.2809482E-001	2.2777697E-001	-1.526243235196393E-001	0	-1.8460235E-004	12	0	-3.4764307E-005	1.4924028E+003
2	0	0	1	0	4.350829890088789E+001	2.2501479E-001	2.2465831E-001	-1.562029256795523E-001	0	-1.9413800E-004	12	0	-3.5092286E-005	1.4382465E+003
2	0	0	1	0	4.356989889933175E+001	2.2193481E-001	2.2160438E-001	-1.596816219720378E-001	0	-2.0389083E-004	12	0	-3.5386147E-005	1.3877888E+003
2	0	0	1	0	4.363129889778065E+001	2.1886481E-001	2.1851775E-001	-1.628681314153315E-001	0	-2.1381665E-004	12	0	-3.5589579E-005	1.3416852E+003
2	0	0	1	0	4.369289889622451E+001	2.1578480E-001	2.1545304E-001	-1.657961048829764E-001	0	-2.2396185E-004	12	0	-3.5721274E-005	1.2995061E+003
2	0	0	1	0	4.375449889466836E+001	2.1270478E-001	2.1238837E-001	-1.688481403336705E-001	0	-2.3429072E-004	12	0	-3.5861380E-005	1.2578662E+003
2	0	0	1	0	4.381609889311221E+001	2.0962480E-001	2.0927685E-001	-1.719562218448143E-001	0	-2.4480993E-004	12	0	-3.5986457E-005	1.2170356E+003
2	0	0	1	0	4.387769889155607E+001	2.0654479E-001	2.0624204E-001	-1.750240185651376E-001	0	-2.5551839E-004	12	0	-3.6097310E-005	1.1783643E+003
2	0	0	1	0	4.393909889000497E+001	2.0347477E-001	2.0316246E-001	-1.780055397359064E-001	0	-2.6637816E-004	12	0	-3.6164045E-005	1.1413267E+003
2	0	0	1	0	4.400069888844882E+001	2.0039478E-001	2.0002259E-001	-1.808084904954148E-001	0	-2.7745118E-004	12	0	-3.6165784E-005	1.1062677E+003
2	0	0	1	0	4.406229888689268E+001	1.9731478E-001	1.9697092E-001	-1.834420205159724E-001	0	-2.8869114E-004	12	0	-3.6132744E-005	1.0737502E+003
2	0	0	1	0	4.412389888533653E+001	1.9423588E-001	1.9388153E-001	-1.860154140202039E-001	0	-3.0009143E-004	12	0	-3.6064954E-005	1.0422875E+003
2	0	0	1	0	4.418539888378291E+001	1.9116031E-001	1.9081518E-001	-1.885119170898526E-001	0	-3.1162839E-004	12	0	-3.5970934E-005	1.0122181E+003
2	0	0	1	0	4.424689888222929E+001	1.8808585E-001	1.8771118E-001	-1.907973269960634E-001	0	-3.2331236E-004	12	0	-3.5814792E-005	9.8382501E+002
2	0	0	1	0	4.430849888067314E+001	1.8500586E-001	1.8466014E-001	-1.929644877412864E-001	0	-3.3515241E-004	12	0	-3.5632849E-005	9.5696436E+002
2	0	0	1	0	4.437009887911699E+001	1.8192585E-001	1.8156180E-001	-1.950265751409369E-001	0	-3.4712240E-004	12	0	-3.5409375E-005	9.3095929E+002
2	0	0	1	0	4.443169887756085E+001	1.7884587E-001	1.7849189E-001	-1.970180498205223E-001	0	-3.5921700E-004	12	0	-3.5166126E-005	9.0596722E+002
2	0	0	1	0	4.449309887600975E+001	1.7577584E-001	1.7545153E-001	-1.990290095394029E-001	0	-3.7139459E-004	12	0	-3.4919944E-005	8.8153748E+002
2	0	0	1	0	4.455469887445361E+001	1.7269585E-001	1.7239232E-001	-2.010976646143219E-001	0	-3.8373782E-004	12	0	-3.4667693E-005	8.5725671E+002
2	0	0	1	0	4.461629887289746E+001	1.6961582E-001	1.6928117E-001	-2.030927156444173E-001	0	-3.9620616E-004	12	0	-3.4379773E-005	8.3351672E+002
2	0	0	1	0	4.467789887134131E+001	1.6653581E-001	1.6616920E-001	-2.049610983133667E-001	0	-4.0879261E-004	12	0	-3.4058223E-005	8.1073529E+002
2	0	0	1	0	4.473949886978517E+001	1.6345583E-001	1.6310069E-001	-2.066536474889071E-001	0	-4.2148857E-004	12	0	-3.3705353E-005	7.8924658E+002
2	0	0	1	0	4.480089886823407E+001	1.6038582E-001	1.6007532E-001	-2.081516554177592E-001	0	-4.3424132E-004	12	0	-3.3319942E-005	7.6903217E+002
2	0	0	1	0	4.486249886667792E+001	1.5730582E-001	1.5694515E-001	-2.094046149912938E-001	0	-4.4711967E-004	12	0	-3.2865039E-005	7.4948279E+002
2	0	0	1	0	4.492409886512178E+001	1.5422580E-001	1.5385392E-001	-2.106828607659477E-001	0	-4.6007530E-004	12	0	-3.2414384E-005	7.3026312E+002
2	0	0	1	0	4.498569886356563E+001	1.5114579E-001	1.5075867E-001	-2.120821639727970E-001	0	-4.7311344E-004	12	0	-3.1973224E-005	7.1085028E+002
2	0	0	1	0	4.504709886201454E+001	1.4807579E-001	1.4770578E-001	-2.135406359099972E-001	0	-4.8619666E-004	12	0	-3.1541185E-005	6.9169867E+002
2	0	0	1	0	4.510869886045839E+001	1.4499578E-001	1.4463802E-001	-2.150606992621358E-001	0	-4.9941428E-004	12	0	-3.1105952E-005	6.7254510E+002
2	0	0	1	0	4.517029885890224E+001	1.4191578E-001	1.4154784E-001	-2.166608970198256E-001	0	-5.1272823E-004	12	0	-3.0667881E-005	6.5331512E+002
2	0	0	1	0	4.523189885734610E+001	1.3883577E-001	1.3845652E-001	-2.181947363517475E-001	0	-5.2613841E-004	12	0	-3.0210485E-005	6.3455481E+002
2	0	0	1	0	4.529349885578995E+001	1.3575578E-001	1.3543642E-001	-2.195994554898599E-001	0	-5.3963880E-004	12	0	-2.9741763E-005	6.1674292E+002
2	0	0	1	0	4.535489885423885E+001	1.3268577E-001	1.3233492E-001	-2.207967777885214E-001	0	-5.5317505E-004	12	0	-2.9219123E-005	5.9935168E+002
2	0	0	1	0	4.541649885268271E+001	1.2960576E-001	1.2928291E-001	-2.217593611270061E-001	0	-5.6682149E-004	12	0	-2.8669694E-005	5.8298737E+002
2	0	0	1	0	4.547809885112656E+001	1.2652574E-001	1.2617177E-001	-2.227934824922073E-001	0	-5.8052904E-004	12	0	-2.8110248E-005	5.6631714E+002
2	0	0	1	0	4.553969884957041E+001	1.2344575E-001	1.2310230E-001	-2.238296378559843E-001	0	-5.9430016E-004	12	0	-2.7553942E-005	5.4998212E+002
2	0	0	1	0	4.560109884801932E+001	1.2037574E-001	1.2001580E-001	-2.248294881865691E-001	0	-6.0808926E-004	12	0	-2.6983091E-005	5.3380811E+002
2	0	0	1	0	4.566269884646317E+001	1.1729574E-001	1.1695563E-001	-2.258380853165454E-001	0	-6.2198477E-004	12	0	-2.6413036E-005	5.1787384E+002
2	0	0	1	0	4.572429884490703E+001	1.1421573E-001	1.1387060E-001	-2.267866471127822E-001	0	-6.3594035E-004	12	0	-2.5824331E-005	5.0210452E+002
2	0	0	1	0	4.578589884335088E+001	1.1113571E-001	1.1075735E-001	-2.277577361131674E-001	0	-6.4995477E-004	12	0	-2.5225843E-005	4.8629459E+002
2	0	0	1	0	4.584749884179473E+001	1.0805571E-001	1.0763985E-001	-2.286824233751199E-001	0	-6.6402706E-004	12	0	-2.4615341E-005	4.7069577E+002
2	0	0	1	0	4.590889884024364E+001	1.0498571E-001	1.0460094E-001	-2.295639306002326E-001	0	-6.7810930E-004	12	0	-2.4012605E-005	4.5565060E+002
2	0	0	1	0	4.597049883868749E+001	1.0190571E-001	1.0149979E-001	-2.304618855703922E-001	0	-6.9229188E-004	12	0	-2.3391833E-005	4.4041898E+002
2	0	0	1	0	4.603209883713134E+001	9.8825708E-002	9.8449059E-002	-2.312113696304205E-001	0	-7.0652488E-004	12	0	-2.2762542E-005	4.2579678E+002
2	0	0	1	0	4.609369883557520E+001	9.5745698E-002	9.5395751E-002	-2.318429323732378E-001	0	-7.2080019E-004	12	0	-2.2116830E-005	4.1146716E+002
2	0	0	1	0	4.615509883402410E+001	9.2675693E-002	9.2268936E-002	-2.324722932302938E-001	0	-7.3506759E-004	12	0	-2.1449971E-005	3.9690292E+002
2	0	0	1	0	4.621669883246796E+001	8.9595690E-002	8.9253306E-002	-2.331631411689905E-001	0	-7.4942212E-004	12	0	-2.0810581E-005	3.8279337E+002
2	0	0	1	0	4.627829883091181E+001	8.6515695E-002	8.6148888E-002	-2.339383993301658E-001	0	-7.6382206E-004	12	0	-2.0153533E-005	3.6825458E+002
2	0	0	1	0	4.633989882935566E+001	8.3435677E-002	8.3077148E-002	-2.347582031123672E-001	0	-7.7827071E-004	12	0	-1.9503042E-005	3.5388391E+002
2	0	0	1	0	4.640149882779951E+001	8.0355674E-002	8.0026180E-002	-2.354809087426881E-001	0	-7.9276651E-004	12	0	-1.8844637E-005	3.3984146E+002
2	0	0	1	0	4.646289882624842E+001	7.7285662E-002	7.6888755E-002	-2.361503825361407E-001	0	-8.0725813E-004	12	0	-1.8157309E-005	3.2559235E+002
2	0	0	1	0	4.652449882469227E+001	7.4205659E-002	7.3789917E-002	-2.366371706601385E-001	0	-8.2183216E-004	12	0	-1.7461438E-005	3.1182724E+002
2	0	0	1	0	4.658609882313613E+001	7.1125656E-002	7.0719898E-002	-2.370472177271057E-001	0	-8.3643390E-004	12	0	-1.6763956E-005	2.9833676E+002
2	0	0	1	0	4.664769882157998E+001	6.8045653E-002	6.7626499E-002	-2.374828481576341E-001	0	-8.5106154E-004	12	0	-1.6060134E-005	2.8476370E+002
2	0	0	1	0	4.670909882002888E+001	6.4975649E-002	6.4565338E-002	-2.379420645791801E-001	0	-8.6566905E-004	12	0	-1.5362810E-005	2.7134900E+002
2	0	0	1	0	4.677069881847274E+001	6.1895642E-002	6.1493251E-002	-2.383959014902108E-001	0	-8.8035240E-004	12	0	-1.4659739E-005	2.5794592E+002
2	0	0	1	0	4.683229881691659E+001	5.8815636E-002	5.8446694E-002	-2.387792686146177E-001	0	-8.9506141E-004	12	0	-1.3955859E-005	2.4477290E+002
2	0	0	1	0	4.689389881536044E+001	5.5735629E-002	5.5354159E-002	-2.392985253153401E-001	0	-9.0979732E-004	12	0	-1.3246169E-005	2.3131844E+002
2	0	0	1	0	4.695549881380430E+001	5.2655622E-002	5.2248493E-002	-2.399875294751128E-001	0	-9.2457060E-004	12	0	-1.2538987E-005	2.1771336E+002
2	0	0	1	0	4.701689881225320E+001	4.9585618E-002	4.9204029E-002	-2.407601842174816E-001	0	-9.3934120E-004	12	0	-1.1846371E-005	2.0436946E+002
2	0	0	1	0	4.707849881069706E+001	4.6505611E-002	4.6132050E-002	-2.414832604240487E-001	0	-9.5420575E-004	12	0	-1.1140118E-005	1.9103622E+002
2	0	0	1	0	4.714009880914091E+001	4.3425605E-002	4.3019533E-002	-2.421410910447706E-001	0	-9.6911239E-004	12	0	-1.0416797E-005	1.7766309E+002
2	0	0	1	0	4.720169880758476E+001	4.0345598E-002	3.9954029E-002	-2.423843007999364E-001	0	-9.8404661E-004	12	0	-9.6842296E-006	1.6483752E+002
2	0	0	1	0	4.726309880603367E+001	3.7275594E-002	3.6854394E-002	-2.422947796929718E-001	0	-9.9893648E-004	12	0	-8.9296273E-006	1.5210561E+002
2	0	0	1	0	4.732469880447752E+001	3.4195591E-002	3.3732235E-002	-2.422330661246623E-001	0	-1.0138693E-003	12	0	-8.1710632E-006	1.3925529E+002
2	0	0	1	0	4.738629880292137E+001	3.1115586E-002	3.0676344E-002	-2.423660039970252E-001	0	-1.0288036E-003	12	0	-7.4349032E-006	1.2657033E+002
2	0	0	1	0	4.744789880136523E+001	2.8035579E-002	2.7651653E-002	-2.434217952146363E-001	0	-1.0437763E-003	12	0	-6.7310148E-006	1.1359563E+002
2	0	0	1	0	4.750949879980908E+001	2.4955573E-002	2.4529114E-002	-2.441034565082698E-001	0	-1.0588036E-003	12	0	-5.9876415E-006	1.0048655E+002
2	0	0	1	0	4.757089879825799E+001	2.1885568E-002	2.1446493E-002	-2.443944012110282E-001	0	-1.0738107E-003	12	0	-5.2414025E-006	8.7753616E+001
2	0	0	1	0	4.763249879670184E+001	1.8805563E-002	1.8383954E-002	-2.447500831719547E-001	0	-1.0888864E-003	12	0	-4.4994740E-006	7.5113167E+001
2	0	0	1	0	4.769409879514569E+001	1.5725559E-002	1.5323306E-002	-2.452588651908527E-001	0	-1.1039887E-003	12	0	-3.7581765E-006	6.2478088E+001
2	0	0	1	0	4.775569879358954E+001	1.2645553E-002	1.2276849E-002	-2.457026703420871E-001	0	-1.1191205E-003	12	0	-3.0164545E-006	4.9966282E+001
2	0	0	1	0	4.781709879203845E+001	9.5755467E-003	9.1552045E-003	-2.460214143865498E-001	0	-1.1342266E-003	12	0	-2.2523764E-006	3.7213039E+001
2	0	0	1	0	4.787869879048230E+001	6.4955414E-003	6.1062686E-003	-2.461926655290211E-001	0	-1.1493964E-003	12	0	-1.5033186E-006	2.4802805E+001
2	0	0	1	0	4.794029878892616E+001	3.4155366E-003	2.9876556E-003	-2.463928623515924E-001	0	-1.1645773E-003	12	0	-7.3613700E-007	1.2125577E+001
2	0	0	1	0	4.800189878737001E+001	3.3553093E-004	-1.5606607E-004	-2.466540927671305E-001	0	-1.1797727E-003	12	0	3.8494335E-008	6.3273257E-001
2	0	0	1	0	4.806349878581386E+001	-2.7444754E-003	-3.4025651E-003	-2.469577791608284E-001	0	-1.1949856E-003	12	0	8.4028994E-007	1.3777923E+001
2	0	0	1	0	4.812489878426277E+001	-5.8144820E-003	-6.4944178E-003	-2.470183206736543E-001	0	-1.2101593E-003	12	0	1.6042402E-006	2.6291239E+001
2	0	0	1	0	4.818649878270662E+001	-8.8944901E-003	-9.5537566E-003	-2.470380004811106E-001	0	-1.2253845E-003	12	0	2.3601410E-006	3.8673225E+001
2	0	0	1	0	4.824809878115047E+001	-1.1974497E-002	-1.2666276E-002	-2.471954036371780E-001	0	-1.2406155E-003	12	0	3.1310451E-006	5.1239933E+001
2	0	0	1	0	4.830969877959433E+001	-1.5054504E-002	-1.5742732E-002	-2.475006940423174E-001	0	-1.2558613E-003	12	0	3.8963371E-006	6.3606819E+001
2	0	0	1	0	4.837109877804323E+001	-1.8124511E-002	-1.8787125E-002	-2.479778976467685E-001	0	-1.2710817E-003	12	0	4.6587916E-006	7.5761292E+001
2	0	0	1	0	4.843269877648709E+001	-2.1204518E-002	-2.1859001E-002	-2.485576363084450E-001	0	-1.2863845E-003	12	0	5.4332218E-006	8.7943390E+001
2	0	0	1	0	4.849429877493094E+001	-2.4284527E-002	-2.4956778E-002	-2.490201991881413E-001	0	-1.3017197E-003	12	0	6.2147419E-006	1.0021989E+002
2	0	0	1	0	4.855589877337479E+001	-2.7364532E-002	-2.7986152E-002	-2.493587240268385E-001	0	-1.3170788E-003	12	0	6.9785910E-006	1.1223250E+002
2	0	0	1	0	4.861749877181865E+001	-3.0444536E-002	-3.1120885E-002	-2.494547610062114E-001	0	-1.3324508E-003	12	0	7.7632531E-006	1.2475563E+002
2	0	0	1	0	4.867889877026755E+001	-3.3514544E-002	-3.4166139E-002	-2.493234705126128E-001	0	-1.3477714E-003	12	0	8.5184201E-006	1.3703539E+002
2	0	0	1	0	4.874049876871140E+001	-3.6594551E-002	-3.7232127E-002	-2.491999326774601E-001	0	-1.3631335E-003	12	0	9.2782439E-006	1.4940665E+002
2	0	0	1	0	4.880209876715526E+001	-3.9674558E-002	-4.0364657E-002	-2.494431130872078E-001	0	-1.3784993E-003	12	0	1.0068686E-005	1.6181909E+002
2	0	0	1	0	4.886369876559911E+001	-4.2754564E-002	-4.3419693E-002	-2.498767279507970E-001	0	-1.3938871E-003	12	0	1.0849571E-005	1.7376445E+002
2	0	0	1	0	4.892509876404802E+001	-4.5824576E-002	-4.6532035E-002	-2.499992948287391E-001	0	-1.4092419E-003	12	0	1.1632976E-005	1.8612866E+002
2	0	0	1	0	4.898669876249187E+001	-4.8904579E-002	-4.9610525E-002	-2.501234751384276E-001	0	-1.4246535E-003	12	0	1.2408757E-005	1.9834415E+002
2	0	0	1	0	4.904829876093572E+001	-5.1984586E-002	-5.2662592E-002	-2.503882006427465E-001	0	-1.4400769E-003	12	0	1.3186092E-005	2.1032378E+002
2	0	0	1	0	4.910989875937958E+001	-5.5064589E-002	-5.5801153E-002	-2.508481790476380E-001	0	-1.4555231E-003	12	0	1.3997617E-005	2.2244991E+002
2	0	0	1	0	4.917149875782343E+001	-5.8144603E-002	-5.8828734E-002	-2.510521937429697E-001	0	-1.4709898E-003	12	0	1.4769083E-005	2.3432870E+002
2	0	0	1	0	4.923289875627233E+001	-6.1214611E-002	-6.1888039E-002	-2.513324271474473E-001	0	-1.4864205E-003	12	0	1.5554471E-005	2.4623978E+002
2	0	0	1	0	4.929449875471619E+001	-6.4294614E-002	-6.4936496E-002	-2.516094124903654E-001	0	-1.5019191E-003	12	0	1.6338634E-005	2.5808453E+002
2	0	0	1	0	4.935609875316004E+001	-6.7374624E-002	-6.8039164E-002	-2.516664309666012E-001	0	-1.5174281E-003	12	0	1.7123173E-005	2.7035455E+002
2	0	0	1	0	4.941769875160389E+001	-7.0454627E-002	-7.1128748E-002	-2.516160338504809E-001	0	-1.5329367E-003	12	0	1.7897133E-005	2.8268765E+002
2	0	0	1	0	4.947909875005280E+001	-7.3524639E-002	-7.4195109E-002	-2.514295225655916E-001	0	-1.5483875E-003	12	0	1.8654840E-005	2.9509308E+002
2	0	0	1	0	4.954069874849665E+001	-7.6604642E-002	-7.7251554E-002	-2.513594064704952E-001	0	-1.5638804E-003	12	0	1.9417905E-005	3.0733505E+002
2	0	0	1	0	4.960229874694051E+001	-7.9684652E-002	-8.0365799E-002	-2.515354415061748E-001	0	-1.5793765E-003	12	0	2.0214848E-005	3.1950089E+002
2	0	0	1	0	4.966389874538436E+001	-8.2764655E-002	-8.3442427E-002	-2.517138696941199E-001	0	-1.5948843E-003	12	0	2.1003616E-005	3.3149713E+002
2	0	0	1	0	4.972549874382821E+001	-8.5844666E-002	-8.6584263E-002	-2.518432214361104E-001	0	-1.6104011E-003	12	0	2.1805659E-005	3.4380225E+002
2	0	0	1	0	4.978689874227712E+001	-8.8914670E-002	-8.9625210E-002	-2.522717975241715E-001	0	-1.6258847E-003	12	0	2.2609913E-005	3.5527240E+002
2	0	0	1	0	4.984849874072097E+001	-9.1994673E-002	-9.2659526E-002	-2.528600075823801E-001	0	-1.6414515E-003	12	0	2.3429888E-005	3.6644595E+002
2	0	0	1	0	4.991009873916482E+001	-9.5074676E-002	-9.5720015E-002	-2.526973836381705E-001	0	-1.6570311E-003	12	0	2.4188197E-005	3.7879306E+002
2	0	0	1	0	4.997169873760868E+001	-9.8154686E-002	-9.8845765E-002	-2.522417265488275E-001	0	-1.6725892E-003	12	0	2.4933026E-005	3.9186920E+002
2	0	0	1	0	5.000539873675734E+001	-9.9844120E-002	-1.0049205E-001	-2.521724466766635E-001	0	-1.6810927E-003	12	0	2.5341325E-005	3.9850525E+002
2	0	0	1	0	5.000579873674724E+001	-1.0015190E-001	-1.0087366E-001	-2.532565891742706E-001	0	-1.6811941E-003	12	0	2.5546920E-005	3.9830618E+002