					time/s	Ewe/V	I/mA			cycle number	I Range			Ns															
0	0	0	0	0	3.407025913931284E+002	2.7589610E-001	-2.0013127E-002	0	0	0.000000000000000E+000	13	0	0	0	0	0	0	0	0	0	0	0	0	0	0	0	0	0
0	0	0	0	0	3.412025913804973E+002	2.6884466E-001	-2.0008039E-002	0	0	0.000000000000000E+000	13	0	0	0	0	0	0	0	0	0	0	0	0	0	0	0	0	0
0	0	0	0	0	3.417025913678663E+002	2.6393756E-001	-2.0015670E-002	0	0	0.000000000000000E+000	13	0	0	0	0	0	0	0	0	0	0	0	0	0	0	0	0	0
0	0	0	0	0	3.422025913552352E+002	2.5980705E-001	-2.0008676E-002	0	0	0.000000000000000E+000	13	0	0	0	0	0	0	0	0	0	0	0	0	0	0	0	0	0
0	0	0	0	0	3.427025913426041E+002	2.5607044E-001	-2.0004224E-002	0	0	0.000000000000000E+000	13	0	0	0	0	0	0	0	0	0	0	0	0	0	0	0	0	0
0	0	0	0	0	3.432025913299731E+002	2.5254190E-001	-2.0003589E-002	0	0	0.000000000000000E+000	13	0	0	0	0	0	0	0	0	0	0	0	0	0	0	0	0	0
0	0	0	0	0	3.437025913173420E+002	2.4913487E-001	-2.0015035E-002	0	0	0.000000000000000E+000	13	0	0	0	0	0	0	0	0	0	0	0	0	0	0	0	0	0
0	0	0	0	0	3.442025913047110E+002	2.4577518E-001	-2.0011853E-002	0	0	0.000000000000000E+000	13	0	0	0	0	0	0	0	0	0	0	0	0	0	0	0	0	0
0	0	0	0	0	3.447025912920799E+002	2.4241683E-001	-2.0006131E-002	0	0	0.000000000000000E+000	13	0	0	0	0	0	0	0	0	0	0	0	0	0	0	0	0	0
0	0	0	0	0	3.452025912794488E+002	2.3901847E-001	-2.0007404E-002	0	0	0.000000000000000E+000	13	0	0	0	0	0	0	0	0	0	0	0	0	0	0	0	0	0
0	0	0	0	0	3.457025912668178E+002	2.3554111E-001	-2.0008676E-002	0	0	0.000000000000000E+000	13	0	0	0	0	0	0	0	0	0	0	0	0	0	0	0	0	0
0	0	0	0	0	3.462025912541867E+002	2.3193759E-001	-2.0011853E-002	0	0	0.000000000000000E+000	13	0	0	0	0	0	0	0	0	0	0	0	0	0	0	0	0	0
0	0	0	0	0	3.467025912415556E+002	2.2817975E-001	-2.0001680E-002	0	0	0.000000000000000E+000	13	0	0	0	0	0	0	0	0	0	0	0	0	0	0	0	0	0
0	0	0	0	0	3.472025912289246E+002	2.2420807E-001	-2.0006768E-002	0	0	0.000000000000000E+000	13	0	0	0	0	0	0	0	0	0	0	0	0	0	0	0	0	0
0	0	0	0	0	3.477025912162935E+002	2.1996263E-001	-2.0013127E-002	0	0	0.000000000000000E+000	13	0	0	0	0	0	0	0	0	0	0	0	0	0	0	0	0	0
0	0	0	0	0	3.482025912036625E+002	2.1535760E-001	-2.0004224E-002	0	0	0.000000000000000E+000	13	0	0	0	0	0	0	0	0	0	0	0	0	0	0	0	0	0
0	0	0	0	0	3.487025911910314E+002	2.1031410E-001	-2.0006768E-002	0	0	0.000000000000000E+000	13	0	0	0	0	0	0	0	0	0	0	0	0	0	0	0	0	0
0	0	0	0	0	3.492025911784003E+002	2.0468108E-001	-2.0004861E-002	0	0	0.000000000000000E+000	13	0	0	0	0	0	0	0	0	0	0	0	0	0	0	0	0	0
0	0	0	0	0	3.497025911657693E+002	1.9827205E-001	-2.0014398E-002	0	0	0.000000000000000E+000	13	0	0	0	0	0	0	0	0	0	0	0	0	0	0	0	0	0
0	0	0	0	0	3.502025911531382E+002	1.9079600E-001	-2.0011853E-002	0	0	0.000000000000000E+000	13	0	0	0	0	0	0	0	0	0	0	0	0	0	0	0	0	0
0	0	0	0	0	3.507025911405071E+002	1.8181282E-001	-2.0004861E-002	0	0	0.000000000000000E+000	13	0	0	0	0	0	0	0	0	0	0	0	0	0	0	0	0	0
0	0	0	0	0	3.512025911278761E+002	1.7057993E-001	-2.0013761E-002	0	0	0.000000000000000E+000	13	0	0	0	0	0	0	0	0	0	0	0	0	0	0	0	0	0
0	0	0	0	0	3.517025911152450E+002	1.5578192E-001	-2.0006768E-002	0	0	0.000000000000000E+000	13	0	0	0	0	0	0	0	0	0	0	0	0	0	0	0	0	0
0	0	0	0	0	3.522025911026140E+002	1.3488820E-001	-2.0006768E-002	0	0	0.000000000000000E+000	13	0	0	0	0	0	0	0	0	0	0	0	0	0	0	0	0	0
0	0	0	0	0	3.527025910899829E+002	1.0273010E-001	-2.0006768E-002	0	0	0.000000000000000E+000	13	0	0	0	0	0	0	0	0	0	0	0	0	0	0	0	0	0
0	0	0	0	0	3.532025910773518E+002	4.9016055E-002	-2.0012492E-002	0	0	0.000000000000000E+000	13	0	0	0	0	0	0	0	0	0	0	0	0	0	0	0	0	0
0	0	0	0	0	3.537025910647208E+002	-4.0434975E-002	-2.0006131E-002	0	0	0.000000000000000E+000	13	0	0	0	0	0	0	0	0	0	0	0	0	0	0	0	0	0
0	0	0	0	0	3.542025910520897E+002	-1.6619290E-001	-2.0008039E-002	0	0	0.000000000000000E+000	13	0	0	0	0	0	0	0	0	0	0	0	0	0	0	0	0	0
0	0	0	0	0	3.547025910394586E+002	-2.9245070E-001	-2.0009311E-002	0	0	0.000000000000000E+000	13	0	0	0	0	0	0	0	0	0	0	0	0	0	0	0	0	0
0	0	0	0	0	3.552025910268276E+002	-3.7624651E-001	-2.0007404E-002	0	0	0.000000000000000E+000	13	0	0	0	0	0	0	0	0	0	0	0	0	0	0	0	0	0
0	0	0	0	0	3.557025910141965E+002	-4.2127833E-001	-2.0002315E-002	0	0	0.000000000000000E+000	13	0	0	0	0	0	0	0	0	0	0	0	0	0	0	0	0	0
0	0	0	0	0	3.562025910015655E+002	-4.4594005E-001	-2.0008676E-002	0	0	0.000000000000000E+000	13	0	0	0	0	0	0	0	0	0	0	0	0	0	0	0	0	0
0	0	0	0	0	3.567025909889344E+002	-4.6150807E-001	-2.0010585E-002	0	0	0.000000000000000E+000	13	0	0	0	0	0	0	0	0	0	0	0	0	0	0	0	0	0
0	0	0	0	0	3.572025909763033E+002	-4.7221005E-001	-2.0013127E-002	0	0	0.000000000000000E+000	13	0	0	0	0	0	0	0	0	0	0	0	0	0	0	0	0	0
0	0	0	0	0	3.577025909636723E+002	-4.7981465E-001	-2.0007404E-002	0	0	0.000000000000000E+000	13	0	0	0	0	0	0	0	0	0	0	0	0	0	0	0	0	0
0	0	0	0	0	3.582025909510412E+002	-4.8556632E-001	-2.0015035E-002	0	0	0.000000000000000E+000	13	0	0	0	0	0	0	0	0	0	0	0	0	0	0	0	0	0
0	0	0	0	0	3.587025909384101E+002	-4.9023843E-001	-2.0014398E-002	0	0	0.000000000000000E+000	13	0	0	0	0	0	0	0	0	0	0	0	0	0	0	0	0	0
0	0	0	0	0	3.592025909257791E+002	-4.9424914E-001	-2.0008039E-002	0	0	0.000000000000000E+000	13	0	0	0	0	0	0	0	0	0	0	0	0	0	0	0	0	0
0	0	0	0	0	3.597025909131480E+002	-4.9786568E-001	-2.0009946E-002	0	0	0.000000000000000E+000	13	0	0	0	0	0	0	0	0	0	0	0	0	0	0	0	0	0
0	0	0	0	0	3.602025909005170E+002	-5.0125360E-001	-2.0006768E-002	0	0	0.000000000000000E+000	13	0	0	0	0	0	0	0	0	0	0	0	0	0	0	0	0	0
0	0	0	0	0	3.607025908878859E+002	-5.0452936E-001	-2.0012492E-002	0	0	0.000000000000000E+000	13	0	0	0	0	0	0	0	0	0	0	0	0	0	0	0	0	0
0	0	0	0	0	3.612025908752548E+002	-5.0778943E-001	-2.0005496E-002	0	0	0.000000000000000E+000	13	0	0	0	0	0	0	0	0	0	0	0	0	0	0	0	0	0
0	0	0	0	0	3.617025908626238E+002	-5.1111293E-001	-2.0013127E-002	0	0	0.000000000000000E+000	13	0	0	0	0	0	0	0	0	0	0	0	0	0	0	0	0	0
0	0	0	0	0	3.622025908499927E+002	-5.1455218E-001	-2.0011853E-002	0	0	0.000000000000000E+000	13	0	0	0	0	0	0	0	0	0	0	0	0	0	0	0	0	0
0	0	0	0	0	3.627025908373616E+002	-5.1817501E-001	-2.0001680E-002	0	0	0.000000000000000E+000	13	0	0	0	0	0	0	0	0	0	0	0	0	0	0	0	0	0
0	0	0	0	0	3.632025908247306E+002	-5.2200389E-001	-2.0009946E-002	0	0	0.000000000000000E+000	13	0	0	0	0	0	0	0	0	0	0	0	0	0	0	0	0	0
0	0	0	0	0	3.637025908120995E+002	-5.2608889E-001	-2.0008039E-002	0	0	0.000000000000000E+000	13	0	0	0	0	0	0	0	0	0	0	0	0	0	0	0	0	0
0	0	0	0	0	3.642025907994685E+002	-5.3045058E-001	-2.0011853E-002	0	0	0.000000000000000E+000	13	0	0	0	0	0	0	0	0	0	0	0	0	0	0	0	0	0
0	0	0	0	0	3.647025907868374E+002	-5.3509635E-001	-2.0011218E-002	0	0	0.000000000000000E+000	13	0	0	0	0	0	0	0	0	0	0	0	0	0	0	0	0	0
0	0	0	0	0	3.652025907742063E+002	-5.4004359E-001	-2.0007404E-002	0	0	0.000000000000000E+000	13	0	0	0	0	0	0	0	0	0	0	0	0	0	0	0	0	0
0	0	0	0	0	3.657025907615753E+002	-5.4528815E-001	-2.0004224E-002	0	0	0.000000000000000E+000	13	0	0	0	0	0	0	0	0	0	0	0	0	0	0	0	0	0
0	0	0	0	0	3.662025907489442E+002	-5.5083150E-001	-2.0010585E-002	0	0	0.000000000000000E+000	13	0	0	0	0	0	0	0	0	0	0	0	0	0	0	0	0	0
0	0	0	0	0	3.667025907363131E+002	-5.5665392E-001	-2.0010585E-002	0	0	0.000000000000000E+000	13	0	0	0	0	0	0	0	0	0	0	0	0	0	0	0	0	0
0	0	0	0	0	3.672025907236821E+002	-5.6276327E-001	-2.0008676E-002	0	0	0.000000000000000E+000	13	0	0	0	0	0	0	0	0	0	0	0	0	0	0	0	0	0
0	0	0	0	0	3.677025907110510E+002	-5.6914347E-001	-2.0011853E-002	0	0	0.000000000000000E+000	13	0	0	0	0	0	0	0	0	0	0	0	0	0	0	0	0	0
0	0	0	0	0	3.682025906984200E+002	-5.7578331E-001	-2.0008039E-002	0	0	0.000000000000000E+000	13	0	0	0	0	0	0	0	0	0	0	0	0	0	0	0	0	0
0	0	0	0	0	3.687025906857889E+002	-5.8269191E-001	-2.0011218E-002	0	0	0.000000000000000E+000	13	0	0	0	0	0	0	0	0	0	0	0	0	0	0	0	0	0
0	0	0	0	0	3.692025906731578E+002	-5.8984721E-001	-2.0011853E-002	0	0	0.000000000000000E+000	13	0	0	0	0	0	0	0	0	0	0	0	0	0	0	0	0	0
0	0	0	0	0	3.697025906605268E+002	-5.9725028E-001	-2.0006131E-002	0	0	0.000000000000000E+000	13	0	0	0	0	0	0	0	0	0	0	0	0	0	0	0	0	0
0	0	0	0	0	3.702025906478957E+002	-6.0491395E-001	-2.0012492E-002	0	0	0.000000000000000E+000	13	0	0	0	0	0	0	0	0	0	0	0	0	0	0	0	0	0
0	0	0	0	0	3.707025906352646E+002	-6.1283392E-001	-2.0016942E-002	0	0	0.000000000000000E+000	13	0	0	0	0	0	0	0	0	0	0	0	0	0	0	0	0	0
0	0	0	0	0	3.712025906226336E+002	-6.2102103E-001	-2.0013761E-002	0	0	0.000000000000000E+000	13	0	0	0	0	0	0	0	0	0	0	0	0	0	0	0	0	0
0	0	0	0	0	3.717025906100025E+002	-6.2947786E-001	-2.0012492E-002	0	0	0.000000000000000E+000	13	0	0	0	0	0	0	0	0	0	0	0	0	0	0	0	0	0
0	0	0	0	0	3.722025905973715E+002	-6.3819867E-001	-2.0010585E-002	0	0	0.000000000000000E+000	13	0	0	0	0	0	0	0	0	0	0	0	0	0	0	0	0	0
0	0	0	0	0	3.727025905847404E+002	-6.4720410E-001	-2.0010585E-002	0	0	0.000000000000000E+000	13	0	0	0	0	0	0	0	0	0	0	0	0	0	0	0	0	0
0	0	0	0	0	3.732025905721093E+002	-6.5648842E-001	-2.0013127E-002	0	0	0.000000000000000E+000	13	0	0	0	0	0	0	0	0	0	0	0	0	0	0	0	0	0
0	0	0	0	0	3.737025905594783E+002	-6.6606635E-001	-2.0005496E-002	0	0	0.000000000000000E+000	13	0	0	0	0	0	0	0	0	0	0	0	0	0	0	0	0	0
0	0	0	0	0	3.742025905468472E+002	-6.7593271E-001	-2.0011853E-002	0	0	0.000000000000000E+000	13	0	0	0	0	0	0	0	0	0	0	0	0	0	0	0	0	0
0	0	0	0	0	3.747025905342161E+002	-6.8609446E-001	-2.0008676E-002	0	0	0.000000000000000E+000	13	0	0	0	0	0	0	0	0	0	0	0	0	0	0	0	0	0
0	0	0	0	0	3.752025905215851E+002	-6.9653535E-001	-2.0004224E-002	0	0	0.000000000000000E+000	13	0	0	0	0	0	0	0	0	0	0	0	0	0	0	0	0	0
0	0	0	0	0	3.757025905089540E+002	-7.0727122E-001	-2.0009946E-002	0	0	0.000000000000000E+000	13	0	0	0	0	0	0	0	0	0	0	0	0	0	0	0	0	0
0	0	0	0	0	3.762025904963230E+002	-7.1826077E-001	-2.0009946E-002	0	0	0.000000000000000E+000	13	0	0	0	0	0	0	0	0	0	0	0	0	0	0	0	0	0
0	0	0	0	0	3.767025904836919E+002	-7.2952104E-001	-2.0011853E-002	0	0	0.000000000000000E+000	13	0	0	0	0	0	0	0	0	0	0	0	0	0	0	0	0	0
0	0	0	0	0	3.772025904710608E+002	-7.4102634E-001	-2.0000407E-002	0	0	0.000000000000000E+000	13	0	0	0	0	0	0	0	0	0	0	0	0	0	0	0	0	0
0	0	0	0	0	3.777025904584298E+002	-7.5276208E-001	-2.0013761E-002	0	0	0.000000000000000E+000	13	0	0	0	0	0	0	0	0	0	0	0	0	0	0	0	0	0
0	0	0	0	0	3.782025904457987E+002	-7.6473033E-001	-2.0007404E-002	0	0	0.000000000000000E+000	13	0	0	0	0	0	0	0	0	0	0	0	0	0	0	0	0	0
0	0	0	0	0	3.787025904331676E+002	-7.7690792E-001	-2.0008676E-002	0	0	0.000000000000000E+000	13	0	0	0	0	0	0	0	0	0	0	0	0	0	0	0	0	0
0	0	0	0	0	3.792025904205366E+002	-7.8928834E-001	-2.0009946E-002	0	0	0.000000000000000E+000	13	0	0	0	0	0	0	0	0	0	0	0	0	0	0	0	0	0
0	0	0	0	0	3.797025904079055E+002	-8.0187631E-001	-2.0012492E-002	0	0	0.000000000000000E+000	13	0	0	0	0	0	0	0	0	0	0	0	0	0	0	0	0	0
0	0	0	0	0	3.802025903952745E+002	-8.1467772E-001	-2.0011853E-002	0	0	0.000000000000000E+000	13	0	0	0	0	0	0	0	0	0	0	0	0	0	0	0	0	0
0	0	0	0	0	3.807025903826434E+002	-8.2767940E-001	-2.0011853E-002	0	0	0.000000000000000E+000	13	0	0	0	0	0	0	0	0	0	0	0	0	0	0	0	0	0
0	0	0	0	0	3.812025903700123E+002	-8.4089816E-001	-2.0004861E-002	0	0	0.000000000000000E+000	13	0	0	0	0	0	0	0	0	0	0	0	0	0	0	0	0	0
0	0	0	0	0	3.817025903573813E+002	-8.5433108E-001	-2.0016305E-002	0	0	0.000000000000000E+000	13	0	0	0	0	0	0	0	0	0	0	0	0	0	0	0	0	0
0	0	0	0	0	3.822025903447502E+002	-8.6793935E-001	-1.9999772E-002	0	0	0.000000000000000E+000	13	0	0	0	0	0	0	0	0	0	0	0	0	0	0	0	0	0
0	0	0	0	0	3.827025903321191E+002	-8.8177967E-001	-2.0011218E-002	0	0	0.000000000000000E+000	13	0	0	0	0	0	0	0	0	0	0	0	0	0	0	0	0	0
0	0	0	0	0	3.832025903194881E+002	-8.9588124E-001	-2.0010585E-002	0	0	0.000000000000000E+000	13	0	0	0	0	0	0	0	0	0	0	0	0	0	0	0	0	0
0	0	0	0	0	3.837025903068570E+002	-9.1019100E-001	-2.0013127E-002	0	0	0.000000000000000E+000	13	0	0	0	0	0	0	0	0	0	0	0	0	0	0	0	0	0
0	0	0	0	0	3.842025902942260E+002	-9.2466593E-001	-2.0003589E-002	0	0	0.000000000000000E+000	13	0	0	0	0	0	0	0	0	0	0	0	0	0	0	0	0	0
0	0	0	0	0	3.847025902815949E+002	-9.3927121E-001	-2.0008676E-002	0	0	0.000000000000000E+000	13	0	0	0	0	0	0	0	0	0	0	0	0	0	0	0	0	0
0	0	0	0	0	3.852025902689638E+002	-9.5398074E-001	-2.0011218E-002	0	0	0.000000000000000E+000	13	0	0	0	0	0	0	0	0	0	0	0	0	0	0	0	0	0
0	0	0	0	0	3.857025902563328E+002	-9.6877611E-001	-2.0013127E-002	0	0	0.000000000000000E+000	13	0	0	0	0	0	0	0	0	0	0	0	0	0	0	0	0	0
0	0	0	0	0	3.862025902437017E+002	-9.8362607E-001	-2.0004224E-002	0	0	0.000000000000000E+000	13	0	0	0	0	0	0	0	0	0	0	0	0	0	0	0	0	0
0	0	0	0	0	3.867025902310706E+002	-9.9850833E-001	-2.0010585E-002	0	0	0.000000000000000E+000	13	0	0	0	0	0	0	0	0	0	0	0	0	0	0	0	0	0
0	0	0	0	0	3.872025902184396E+002	-1.0134075E+000	-2.0007404E-002	0	0	0.000000000000000E+000	13	0	0	0	0	0	0	0	0	0	0	0	0	0	0	0	0	0
0	0	0	0	0	3.877025902058085E+002	-1.0282930E+000	-2.0008039E-002	0	0	0.000000000000000E+000	13	0	0	0	0	0	0	0	0	0	0	0	0	0	0	0	0	0
0	0	0	0	0	3.882025901931775E+002	-1.0431647E+000	-2.0015035E-002	0	0	0.000000000000000E+000	13	0	0	0	0	0	0	0	0	0	0	0	0	0	0	0	0	0
0	0	0	0	0	3.887025901805464E+002	-1.0580246E+000	-2.0008039E-002	0	0	0.000000000000000E+000	13	0	0	0	0	0	0	0	0	0	0	0	0	0	0	0	0	0
0	0	0	0	0	3.892025901679153E+002	-1.0728451E+000	-2.0011218E-002	0	0	0.000000000000000E+000	13	0	0	0	0	0	0	0	0	0	0	0	0	0	0	0	0	0
0	0	0	0	0	3.897025901552843E+002	-1.0876427E+000	-2.0010585E-002	0	0	0.000000000000000E+000	13	0	0	0	0	0	0	0	0	0	0	0	0	0	0	0	0	0
0	0	0	0	0	3.902025901426532E+002	-1.1024234E+000	-2.0008039E-002	0	0	0.000000000000000E+000	13	0	0	0	0	0	0	0	0	0	0	0	0	0	0	0	0	0
0	0	0	0	0	3.907025901300221E+002	-1.1171929E+000	-2.0011218E-002	0	0	0.000000000000000E+000	13	0	0	0	0	0	0	0	0	0	0	0	0	0	0	0	0	0
0	0	0	0	0	3.912025901173911E+002	-1.1319519E+000	-2.0008676E-002	0	0	0.000000000000000E+000	13	0	0	0	0	0	0	0	0	0	0	0	0	0	0	0	0	0
0	0	0	0	0	3.917025901047600E+002	-1.1466502E+000	-2.0011218E-002	0	0	0.000000000000000E+000	13	0	0	0	0	0	0	0	0	0	0	0	0	0	0	0	0	0
0	0	0	0	0	3.922025900921290E+002	-1.1612456E+000	-2.0013127E-002	0	0	0.000000000000000E+000	13	0	0	0	0	0	0	0	0	0	0	0	0	0	0	0	0	0
0	0	0	0	0	3.927025900794979E+002	-1.1756949E+000	-2.0006131E-002	0	0	0.000000000000000E+000	13	0	0	0	0	0	0	0	0	0	0	0	0	0	0	0	0	0
0	0	0	0	0	3.932025900668668E+002	-1.1899774E+000	-2.0011218E-002	0	0	0.000000000000000E+000	13	0	0	0	0	0	0	0	0	0	0	0	0	0	0	0	0	0
0	0	0	0	0	3.937025900542358E+002	-1.2040956E+000	-2.0011218E-002	0	0	0.000000000000000E+000	13	0	0	0	0	0	0	0	0	0	0	0	0	0	0	0	0	0
0	0	0	0	0	3.942025900416047E+002	-1.2180343E+000	-2.0008676E-002	0	0	0.000000000000000E+000	13	0	0	0	0	0	0	0	0	0	0	0	0	0	0	0	0	0
0	0	0	0	0	3.947025900289736E+002	-1.2317775E+000	-2.0015035E-002	0	0	0.000000000000000E+000	13	0	0	0	0	0	0	0	0	0	0	0	0	0	0	0	0	0
0	0	0	0	0	3.952025900163426E+002	-1.2453477E+000	-2.0011218E-002	0	0	0.000000000000000E+000	13	0	0	0	0	0	0	0	0	0	0	0	0	0	0	0	0	0
0	0	0	0	0	3.957025900037115E+002	-1.2587194E+000	-2.0002954E-002	0	0	0.000000000000000E+000	13	0	0	0	0	0	0	0	0	0	0	0	0	0	0	0	0	0
0	0	0	0	0	3.962025899910805E+002	-1.2719027E+000	-2.0013761E-002	0	0	0.000000000000000E+000	13	0	0	0	0	0	0	0	0	0	0	0	0	0	0	0	0	0
0	0	0	0	0	3.967025899784494E+002	-1.2849126E+000	-2.0015670E-002	0	0	0.000000000000000E+000	13	0	0	0	0	0	0	0	0	0	0	0	0	0	0	0	0	0
0	0	0	0	0	3.972025899658183E+002	-1.2977487E+000	-2.0006131E-002	0	0	0.000000000000000E+000	13	0	0	0	0	0	0	0	0	0	0	0	0	0	0	0	0	0
0	0	0	0	0	3.977025899531873E+002	-1.3104047E+000	-2.0007404E-002	0	0	0.000000000000000E+000	13	0	0	0	0	0	0	0	0	0	0	0	0	0	0	0	0	0
0	0	0	0	0	3.982025899405562E+002	-1.3228915E+000	-2.0008676E-002	0	0	0.000000000000000E+000	13	0	0	0	0	0	0	0	0	0	0	0	0	0	0	0	0	0
0	0	0	0	0	3.987025899279251E+002	-1.3351933E+000	-2.0012492E-002	0	0	0.000000000000000E+000	13	0	0	0	0	0	0	0	0	0	0	0	0	0	0	0	0	0
0	0	0	0	0	3.992025899152941E+002	-1.3472999E+000	-2.0016942E-002	0	0	0.000000000000000E+000	13	0	0	0	0	0	0	0	0	0	0	0	0	0	0	0	0	0
0	0	0	0	0	3.997025899026630E+002	-1.3592223E+000	-2.0010585E-002	0	0	0.000000000000000E+000	13	0	0	0	0	0	0	0	0	0	0	0	0	0	0	0	0	0
0	0	0	0	0	4.002025898900320E+002	-1.3709425E+000	-2.0005496E-002	0	0	0.000000000000000E+000	13	0	0	0	0	0	0	0	0	0	0	0	0	0	0	0	0	0
0	0	0	0	0	4.007025898774009E+002	-1.3824503E+000	-2.0009946E-002	0	0	0.000000000000000E+000	13	0	0	0	0	0	0	0	0	0	0	0	0	0	0	0	0	0
0	0	0	0	0	4.012025898647698E+002	-1.3937517E+000	-2.0007404E-002	0	0	0.000000000000000E+000	13	0	0	0	0	0	0	0	0	0	0	0	0	0	0	0	0	0
0	0	0	0	0	4.017025898521388E+002	-1.4048476E+000	-2.0011853E-002	0	0	0.000000000000000E+000	13	0	0	0	0	0	0	0	0	0	0	0	0	0	0	0	0	0
0	0	0	0	0	4.022025898395077E+002	-1.4157184E+000	-2.0006768E-002	0	0	0.000000000000000E+000	13	0	0	0	0	0	0	0	0	0	0	0	0	0	0	0	0	0
0	0	0	0	0	4.027025898268766E+002	-1.4263620E+000	-2.0010585E-002	0	0	0.000000000000000E+000	13	0	0	0	0	0	0	0	0	0	0	0	0	0	0	0	0	0
0	0	0	0	0	4.032025898142456E+002	-1.4367828E+000	-2.0011218E-002	0	0	0.000000000000000E+000	13	0	0	0	0	0	0	0	0	0	0	0	0	0	0	0	0	0
0	0	0	0	0	4.037025898016145E+002	-1.4469693E+000	-2.0011853E-002	0	0	0.000000000000000E+000	13	0	0	0	0	0	0	0	0	0	0	0	0	0	0	0	0	0
0	0	0	0	0	4.042025897889835E+002	-1.4568901E+000	-2.0009946E-002	0	0	0.000000000000000E+000	13	0	0	0	0	0	0	0	0	0	0	0	0	0	0	0	0	0
0	0	0	0	0	4.047025897763524E+002	-1.4665412E+000	-2.0011853E-002	0	0	0.000000000000000E+000	13	0	0	0	0	0	0	0	0	0	0	0	0	0	0	0	0	0
0	0	0	0	0	4.052025897637213E+002	-1.4759003E+000	-2.0009311E-002	0	0	0.000000000000000E+000	13	0	0	0	0	0	0	0	0	0	0	0	0	0	0	0	0	0
0	0	0	0	0	4.057025897510903E+002	-1.4849428E+000	-2.0016305E-002	0	0	0.000000000000000E+000	13	0	0	0	0	0	0	0	0	0	0	0	0	0	0	0	0	0
0	0	0	0	0	4.062025897384592E+002	-1.4936281E+000	-2.0012492E-002	0	0	0.000000000000000E+000	13	0	0	0	0	0	0	0	0	0	0	0	0	0	0	0	0	0
0	0	0	0	0	4.067025897258281E+002	-1.5019361E+000	-2.0009311E-002	0	0	0.000000000000000E+000	13	0	0	0	0	0	0	0	0	0	0	0	0	0	0	0	0	0
0	0	0	0	0	4.072025897131971E+002	-1.5098419E+000	-2.0005496E-002	0	0	0.000000000000000E+000	13	0	0	0	0	0	0	0	0	0	0	0	0	0	0	0	0	0
0	0	0	0	0	4.077025897005660E+002	-1.5173079E+000	-2.0018850E-002	0	0	0.000000000000000E+000	13	0	0	0	0	0	0	0	0	0	0	0	0	0	0	0	0	0
0	0	0	0	0	4.082025896879350E+002	-1.5243211E+000	-2.0003589E-002	0	0	0.000000000000000E+000	13	0	0	0	0	0	0	0	0	0	0	0	0	0	0	0	0	0
0	0	0	0	0	4.087025896753039E+002	-1.5308833E+000	-2.0012492E-002	0	0	0.000000000000000E+000	13	0	0	0	0	0	0	0	0	0	0	0	0	0	0	0	0	0
0	0	0	0	0	4.092025896626728E+002	-1.5370237E+000	-2.0002315E-002	0	0	0.000000000000000E+000	13	0	0	0	0	0	0	0	0	0	0	0	0	0	0	0	0	0
0	0	0	0	0	4.097025896500418E+002	-1.5427852E+000	-2.0007404E-002	0	0	0.000000000000000E+000	13	0	0	0	0	0	0	0	0	0	0	0	0	0	0	0	0	0
0	0	0	0	0	4.102025896374107E+002	-1.5482030E+000	-2.0008676E-002	0	0	0.000000000000000E+000	13	0	0	0	0	0	0	0	0	0	0	0	0	0	0	0	0	0
0	0	0	0	0	4.107025896247796E+002	-1.5532999E+000	-2.0009311E-002	0	0	0.000000000000000E+000	13	0	0	0	0	0	0	0	0	0	0	0	0	0	0	0	0	0
0	0	0	0	0	4.112025896121486E+002	-1.5580670E+000	-2.0017577E-002	0	0	0.000000000000000E+000	13	0	0	0	0	0	0	0	0	0	0	0	0	0	0	0	0	0
0	0	0	0	0	4.117025895995175E+002	-1.5624986E+000	-2.0013127E-002	0	0	0.000000000000000E+000	13	0	0	0	0	0	0	0	0	0	0	0	0	0	0	0	0	0
0	0	0	0	0	4.122025895868865E+002	-1.5665945E+000	-2.0006768E-002	0	0	0.000000000000000E+000	13	0	0	0	0	0	0	0	0	0	0	0	0	0	0	0	0	0
0	0	0	0	0	4.127025895742554E+002	-1.5703421E+000	-2.0006131E-002	0	0	0.000000000000000E+000	13	0	0	0	0	0	0	0	0	0	0	0	0	0	0	0	0	0
0	0	0	0	0	4.132025895616243E+002	-1.5737333E+000	-2.0008039E-002	0	0	0.000000000000000E+000	13	0	0	0	0	0	0	0	0	0	0	0	0	0	0	0	0	0
0	0	0	0	0	4.137025895489933E+002	-1.5767643E+000	-2.0008676E-002	0	0	0.000000000000000E+000	13	0	0	0	0	0	0	0	0	0	0	0	0	0	0	0	0	0
0	0	0	0	0	4.142025895363622E+002	-1.5794481E+000	-2.0014398E-002	0	0	0.000000000000000E+000	13	0	0	0	0	0	0	0	0	0	0	0	0	0	0	0	0	0
0	0	0	0	0	4.147025895237311E+002	-1.5817612E+000	-2.0002954E-002	0	0	0.000000000000000E+000	13	0	0	0	0	0	0	0	0	0	0	0	0	0	0	0	0	0
0	0	0	0	0	4.152025895111001E+002	-1.5836899E+000	-2.0011218E-002	0	0	0.000000000000000E+000	13	0	0	0	0	0	0	0	0	0	0	0	0	0	0	0	0	0
0	0	0	0	0	4.157025894984690E+002	-1.5852655E+000	-2.0011853E-002	0	0	0.000000000000000E+000	13	0	0	0	0	0	0	0	0	0	0	0	0	0	0	0	0	0
0	0	0	0	0	4.162025894858380E+002	-1.5864639E+000	-2.0006768E-002	0	0	0.000000000000000E+000	13	0	0	0	0	0	0	0	0	0	0	0	0	0	0	0	0	0
0	0	0	0	0	4.167025894732069E+002	-1.5873356E+000	-2.0009946E-002	0	0	0.000000000000000E+000	13	0	0	0	0	0	0	0	0	0	0	0	0	0	0	0	0	0
0	0	0	0	0	4.172025894605758E+002	-1.5878694E+000	-2.0006768E-002	0	0	0.000000000000000E+000	13	0	0	0	0	0	0	0	0	0	0	0	0	0	0	0	0	0
0	0	0	0	0	4.177025894479448E+002	-1.5881344E+000	-2.0010585E-002	0	0	0.000000000000000E+000	13	0	0	0	0	0	0	0	0	0	0	0	0	0	0	0	0	0
0	0	0	0	0	4.182025894353137E+002	-1.5881233E+000	-2.0009946E-002	0	0	0.000000000000000E+000	13	0	0	0	0	0	0	0	0	0	0	0	0	0	0	0	0	0
0	0	0	0	0	4.187025894226826E+002	-1.5878921E+000	-2.0006768E-002	0	0	0.000000000000000E+000	13	0	0	0	0	0	0	0	0	0	0	0	0	0	0	0	0	0
0	0	0	0	0	4.192025894100516E+002	-1.5874230E+000	-2.0010585E-002	0	0	0.000000000000000E+000	13	0	0	0	0	0	0	0	0	0	0	0	0	0	0	0	0	0
0	0	0	0	0	4.197025893974205E+002	-1.5867445E+000	-2.0007404E-002	0	0	0.000000000000000E+000	13	0	0	0	0	0	0	0	0	0	0	0	0	0	0	0	0	0
0	0	0	0	0	4.202025893847895E+002	-1.5859263E+000	-2.0015035E-002	0	0	0.000000000000000E+000	13	0	0	0	0	0	0	0	0	0	0	0	0	0	0	0	0	0
0	0	0	0	0	4.207025893721584E+002	-1.5849771E+000	-2.0013761E-002	0	0	0.000000000000000E+000	13	0	0	0	0	0	0	0	0	0	0	0	0	0	0	0	0	0
0	0	0	0	0	4.212025893595273E+002	-1.5839168E+000	-2.0012492E-002	0	0	0.000000000000000E+000	13	0	0	0	0	0	0	0	0	0	0	0	0	0	0	0	0	0
0	0	0	0	0	4.217025893468963E+002	-1.5827748E+000	-2.0006768E-002	0	0	0.000000000000000E+000	13	0	0	0	0	0	0	0	0	0	0	0	0	0	0	0	0	0
0	0	0	0	0	4.222025893342652E+002	-1.5815784E+000	-2.0008676E-002	0	0	0.000000000000000E+000	13	0	0	0	0	0	0	0	0	0	0	0	0	0	0	0	0	0
0	0	0	0	0	4.227025893216342E+002	-1.5803546E+000	-2.0005496E-002	0	0	0.000000000000000E+000	13	0	0	0	0	0	0	0	0	0	0	0	0	0	0	0	0	0
0	0	0	0	0	4.232025893090031E+002	-1.5790889E+000	-2.0010585E-002	0	0	0.000000000000000E+000	13	0	0	0	0	0	0	0	0	0	0	0	0	0	0	0	0	0
0	0	0	0	0	4.237025892963720E+002	-1.5777912E+000	-2.0008676E-002	0	0	0.000000000000000E+000	13	0	0	0	0	0	0	0	0	0	0	0	0	0	0	0	0	0
0	0	0	0	0	4.242025892837410E+002	-1.5764810E+000	-2.0009946E-002	0	0	0.000000000000000E+000	13	0	0	0	0	0	0	0	0	0	0	0	0	0	0	0	0	0
0	0	0	0	0	4.247025892711099E+002	-1.5752031E+000	-2.0009311E-002	0	0	0.000000000000000E+000	13	0	0	0	0	0	0	0	0	0	0	0	0	0	0	0	0	0
0	0	0	0	0	4.252025892584788E+002	-1.5739474E+000	-2.0006768E-002	0	0	0.000000000000000E+000	13	0	0	0	0	0	0	0	0	0	0	0	0	0	0	0	0	0
0	0	0	0	0	4.257025892458478E+002	-1.5727007E+000	-2.0009946E-002	0	0	0.000000000000000E+000	13	0	0	0	0	0	0	0	0	0	0	0	0	0	0	0	0	0
0	0	0	0	0	4.262025892332167E+002	-1.5714879E+000	-2.0013761E-002	0	0	0.000000000000000E+000	13	0	0	0	0	0	0	0	0	0	0	0	0	0	0	0	0	0
0	0	0	0	0	4.267025892205857E+002	-1.5703018E+000	-2.0012492E-002	0	0	0.000000000000000E+000	13	0	0	0	0	0	0	0	0	0	0	0	0	0	0	0	0	0
0	0	0	0	0	4.272025892079546E+002	-1.5691253E+000	-2.0011218E-002	0	0	0.000000000000000E+000	13	0	0	0	0	0	0	0	0	0	0	0	0	0	0	0	0	0
0	0	0	0	0	4.277025891953235E+002	-1.5679806E+000	-2.0006768E-002	0	0	0.000000000000000E+000	13	0	0	0	0	0	0	0	0	0	0	0	0	0	0	0	0	0
0	0	0	0	0	4.282025891826925E+002	-1.5668691E+000	-2.0011218E-002	0	0	0.000000000000000E+000	13	0	0	0	0	0	0	0	0	0	0	0	0	0	0	0	0	0
0	0	0	0	0	4.287025891700614E+002	-1.5657966E+000	-2.0008039E-002	0	0	0.000000000000000E+000	13	0	0	0	0	0	0	0	0	0	0	0	0	0	0	0	0	0
0	0	0	0	0	4.292025891574303E+002	-1.5647402E+000	-2.0006131E-002	0	0	0.000000000000000E+000	13	0	0	0	0	0	0	0	0	0	0	0	0	0	0	0	0	0
0	0	0	0	0	4.297025891447993E+002	-1.5637071E+000	-2.0006768E-002	0	0	0.000000000000000E+000	13	0	0	0	0	0	0	0	0	0	0	0	0	0	0	0	0	0
0	0	0	0	0	4.302025891321682E+002	-1.5627120E+000	-2.0003589E-002	0	0	0.000000000000000E+000	13	0	0	0	0	0	0	0	0	0	0	0	0	0	0	0	0	0
0	0	0	0	0	4.307025891195372E+002	-1.5617349E+000	-2.0011218E-002	0	0	0.000000000000000E+000	13	0	0	0	0	0	0	0	0	0	0	0	0	0	0	0	0	0
0	0	0	0	0	4.312025891069061E+002	-1.5607969E+000	-2.0009946E-002	0	0	0.000000000000000E+000	13	0	0	0	0	0	0	0	0	0	0	0	0	0	0	0	0	0
0	0	0	0	0	4.317025890942750E+002	-1.5598887E+000	-2.0008676E-002	0	0	0.000000000000000E+000	13	0	0	0	0	0	0	0	0	0	0	0	0	0	0	0	0	0
0	0	0	0	0	4.322025890816440E+002	-1.5589900E+000	-1.9999137E-002	0	0	0.000000000000000E+000	13	0	0	0	0	0	0	0	0	0	0	0	0	0	0	0	0	0
0	0	0	0	0	4.327025890690129E+002	-1.5581353E+000	-2.0017577E-002	0	0	0.000000000000000E+000	13	0	0	0	0	0	0	0	0	0	0	0	0	0	0	0	0	0
0	0	0	0	0	4.332025890563818E+002	-1.5572925E+000	-2.0008676E-002	0	0	0.000000000000000E+000	13	0	0	0	0	0	0	0	0	0	0	0	0	0	0	0	0	0
0	0	0	0	0	4.337025890437508E+002	-1.5564774E+000	-2.0019485E-002	0	0	0.000000000000000E+000	13	0	0	0	0	0	0	0	0	0	0	0	0	0	0	0	0	0
0	0	0	0	0	4.342025890311197E+002	-1.5556792E+000	-2.0008676E-002	0	0	0.000000000000000E+000	13	0	0	0	0	0	0	0	0	0	0	0	0	0	0	0	0	0
0	0	0	0	0	4.347025890184887E+002	-1.5549114E+000	-2.0010585E-002	0	0	0.000000000000000E+000	13	0	0	0	0	0	0	0	0	0	0	0	0	0	0	0	0	0
0	0	0	0	0	4.352025890058576E+002	-1.5541518E+000	-2.0009311E-002	0	0	0.000000000000000E+000	13	0	0	0	0	0	0	0	0	0	0	0	0	0	0	0	0	0
0	0	0	0	0	4.357025889932265E+002	-1.5534093E+000	-2.0010585E-002	0	0	0.000000000000000E+000	13	0	0	0	0	0	0	0	0	0	0	0	0	0	0	0	0	0
0	0	0	0	0	4.362025889805955E+002	-1.5526941E+000	-2.0008039E-002	0	0	0.000000000000000E+000	13	0	0	0	0	0	0	0	0	0	0	0	0	0	0	0	0	0
0	0	0	0	0	4.367025889679644E+002	-1.5519946E+000	-2.0009311E-002	0	0	0.000000000000000E+000	13	0	0	0	0	0	0	0	0	0	0	0	0	0	0	0	0	0
0	0	0	0	0	4.372025889553333E+002	-1.5513068E+000	-2.0009946E-002	0	0	0.000000000000000E+000	13	0	0	0	0	0	0	0	0	0	0	0	0	0	0	0	0	0
0	0	0	0	0	4.377025889427023E+002	-1.5506454E+000	-2.0011218E-002	0	0	0.000000000000000E+000	13	0	0	0	0	0	0	0	0	0	0	0	0	0	0	0	0	0
0	0	0	0	0	4.382025889300712E+002	-1.5499886E+000	-2.0012492E-002	0	0	0.000000000000000E+000	13	0	0	0	0	0	0	0	0	0	0	0	0	0	0	0	0	0
0	0	0	0	0	4.387025889174402E+002	-1.5493561E+000	-2.0002315E-002	0	0	0.000000000000000E+000	13	0	0	0	0	0	0	0	0	0	0	0	0	0	0	0	0	0
0	0	0	0	0	4.392025889048091E+002	-1.5487223E+000	-2.0009946E-002	0	0	0.000000000000000E+000	13	0	0	0	0	0	0	0	0	0	0	0	0	0	0	0	0	0
0	0	0	0	0	4.397025888921780E+002	-1.5481175E+000	-2.0014398E-002	0	0	0.000000000000000E+000	13	0	0	0	0	0	0	0	0	0	0	0	0	0	0	0	0	0
0	0	0	0	0	4.402025888795470E+002	-1.5475141E+000	-2.0005496E-002	0	0	0.000000000000000E+000	13	0	0	0	0	0	0	0	0	0	0	0	0	0	0	0	0	0
0	0	0	0	0	4.407025888669159E+002	-1.5469292E+000	-2.0005496E-002	0	0	0.000000000000000E+000	13	0	0	0	0	0	0	0	0	0	0	0	0	0	0	0	0	0
0	0	0	0	0	4.412025888542848E+002	-1.5463431E+000	-2.0008676E-002	0	0	0.000000000000000E+000	13	0	0	0	0	0	0	0	0	0	0	0	0	0	0	0	0	0
0	0	0	0	0	4.417025888416538E+002	-1.5457875E+000	-2.0009311E-002	0	0	0.000000000000000E+000	13	0	0	0	0	0	0	0	0	0	0	0	0	0	0	0	0	0
0	0	0	0	0	4.422025888290227E+002	-1.5452297E+000	-2.0008676E-002	0	0	0.000000000000000E+000	13	0	0	0	0	0	0	0	0	0	0	0	0	0	0	0	0	0
0	0	0	0	0	4.427025888163917E+002	-1.5446851E+000	-2.0016305E-002	0	0	0.000000000000000E+000	13	0	0	0	0	0	0	0	0	0	0	0	0	0	0	0	0	0
0	0	0	0	0	4.432025888037606E+002	-1.5441290E+000	-2.0011218E-002	0	0	0.000000000000000E+000	13	0	0	0	0	0	0	0	0	0	0	0	0	0	0	0	0	0
0	0	0	0	0	4.437025887911295E+002	-1.5435843E+000	-2.0002315E-002	0	0	0.000000000000000E+000	13	0	0	0	0	0	0	0	0	0	0	0	0	0	0	0	0	0
0	0	0	0	0	4.442025887784985E+002	-1.5430665E+000	-2.0009946E-002	0	0	0.000000000000000E+000	13	0	0	0	0	0	0	0	0	0	0	0	0	0	0	0	0	0
0	0	0	0	0	4.447025887658674E+002	-1.5425357E+000	-2.0009311E-002	0	0	0.000000000000000E+000	13	0	0	0	0	0	0	0	0	0	0	0	0	0	0	0	0	0
0	0	0	0	0	4.452025887532363E+002	-1.5420225E+000	-2.0008676E-002	0	0	0.000000000000000E+000	13	0	0	0	0	0	0	0	0	0	0	0	0	0	0	0	0	0
0	0	0	0	0	4.457025887406053E+002	-1.5415194E+000	-2.0006131E-002	0	0	0.000000000000000E+000	13	0	0	0	0	0	0	0	0	0	0	0	0	0	0	0	0	0
0	0	0	0	0	4.462025887279742E+002	-1.5410295E+000	-2.0008676E-002	0	0	0.000000000000000E+000	13	0	0	0	0	0	0	0	0	0	0	0	0	0	0	0	0	0
0	0	0	0	0	4.467025887153432E+002	-1.5405321E+000	-2.0007404E-002	0	0	0.000000000000000E+000	13	0	0	0	0	0	0	0	0	0	0	0	0	0	0	0	0	0
0	0	0	0	0	4.472025887027121E+002	-1.5400429E+000	-2.0008676E-002	0	0	0.000000000000000E+000	13	0	0	0	0	0	0	0	0	0	0	0	0	0	0	0	0	0
0	0	0	0	0	4.477025886900810E+002	-1.5395643E+000	-2.0009311E-002	0	0	0.000000000000000E+000	13	0	0	0	0	0	0	0	0	0	0	0	0	0	0	0	0	0
0	0	0	0	0	4.482025886774500E+002	-1.5390880E+000	-2.0011218E-002	0	0	0.000000000000000E+000	13	0	0	0	0	0	0	0	0	0	0	0	0	0	0	0	0	0
0	0	0	0	0	4.487025886648189E+002	-1.5386297E+000	-2.0011853E-002	0	0	0.000000000000000E+000	13	0	0	0	0	0	0	0	0	0	0	0	0	0	0	0	0	0
0	0	0	0	0	4.492025886521878E+002	-1.5381683E+000	-2.0008039E-002	0	0	0.000000000000000E+000	13	0	0	0	0	0	0	0	0	0	0	0	0	0	0	0	0	0
0	0	0	0	0	4.497025886395568E+002	-1.5377054E+000	-2.0006768E-002	0	0	0.000000000000000E+000	13	0	0	0	0	0	0	0	0	0	0	0	0	0	0	0	0	0
0	0	0	0	0	4.502025886269257E+002	-1.5372502E+000	-2.0007404E-002	0	0	0.000000000000000E+000	13	0	0	0	0	0	0	0	0	0	0	0	0	0	0	0	0	0
0	0	0	0	0	4.507025886142947E+002	-1.5368086E+000	-2.0008676E-002	0	0	0.000000000000000E+000	13	0	0	0	0	0	0	0	0	0	0	0	0	0	0	0	0	0
0	0	0	0	0	4.512025886016636E+002	-1.5363637E+000	-2.0008039E-002	0	0	0.000000000000000E+000	13	0	0	0	0	0	0	0	0	0	0	0	0	0	0	0	0	0
0	0	0	0	0	4.517025885890325E+002	-1.5359269E+000	-2.0011218E-002	0	0	0.000000000000000E+000	13	0	0	0	0	0	0	0	0	0	0	0	0	0	0	0	0	0
0	0	0	0	0	4.522025885764015E+002	-1.5354848E+000	-2.0006768E-002	0	0	0.000000000000000E+000	13	0	0	0	0	0	0	0	0	0	0	0	0	0	0	0	0	0
0	0	0	0	0	4.527025885637704E+002	-1.5350426E+000	-2.0011218E-002	0	0	0.000000000000000E+000	13	0	0	0	0	0	0	0	0	0	0	0	0	0	0	0	0	0
0	0	0	0	0	4.532025885511393E+002	-1.5346171E+000	-2.0010585E-002	0	0	0.000000000000000E+000	13	0	0	0	0	0	0	0	0	0	0	0	0	0	0	0	0	0
0	0	0	0	0	4.537025885385083E+002	-1.5341822E+000	-2.0015035E-002	0	0	0.000000000000000E+000	13	0	0	0	0	0	0	0	0	0	0	0	0	0	0	0	0	0
0	0	0	0	0	4.542025885258772E+002	-1.5337578E+000	-2.0007404E-002	0	0	0.000000000000000E+000	13	0	0	0	0	0	0	0	0	0	0	0	0	0	0	0	0	0
0	0	0	0	0	4.547025885132462E+002	-1.5333399E+000	-2.0011218E-002	0	0	0.000000000000000E+000	13	0	0	0	0	0	0	0	0	0	0	0	0	0	0	0	0	0
0	0	0	0	0	4.552025885006151E+002	-1.5329107E+000	-2.0009946E-002	0	0	0.000000000000000E+000	13	0	0	0	0	0	0	0	0	0	0	0	0	0	0	0	0	0
0	0	0	0	0	4.557025884879840E+002	-1.5324994E+000	-2.0015035E-002	0	0	0.000000000000000E+000	13	0	0	0	0	0	0	0	0	0	0	0	0	0	0	0	0	0
0	0	0	0	0	4.562025884753530E+002	-1.5320846E+000	-2.0006768E-002	0	0	0.000000000000000E+000	13	0	0	0	0	0	0	0	0	0	0	0	0	0	0	0	0	0
0	0	0	0	0	4.567025884627219E+002	-1.5316721E+000	-2.0004861E-002	0	0	0.000000000000000E+000	13	0	0	0	0	0	0	0	0	0	0	0	0	0	0	0	0	0
0	0	0	0	0	4.572025884500908E+002	-1.5312585E+000	-2.0009311E-002	0	0	0.000000000000000E+000	13	0	0	0	0	0	0	0	0	0	0	0	0	0	0	0	0	0
0	0	0	0	0	4.577025884374598E+002	-1.5308474E+000	-2.0012492E-002	0	0	0.000000000000000E+000	13	0	0	0	0	0	0	0	0	0	0	0	0	0	0	0	0	0
0	0	0	0	0	4.582025884248287E+002	-1.5304341E+000	-2.0008039E-002	0	0	0.000000000000000E+000	13	0	0	0	0	0	0	0	0	0	0	0	0	0	0	0	0	0
0	0	0	0	0	4.587025884121977E+002	-1.5300363E+000	-2.0006768E-002	0	0	0.000000000000000E+000	13	0	0	0	0	0	0	0	0	0	0	0	0	0	0	0	0	0
0	0	0	0	0	4.592025883995666E+002	-1.5296415E+000	-2.0009311E-002	0	0	0.000000000000000E+000	13	0	0	0	0	0	0	0	0	0	0	0	0	0	0	0	0	0
0	0	0	0	0	4.597025883869355E+002	-1.5292337E+000	-2.0015670E-002	0	0	0.000000000000000E+000	13	0	0	0	0	0	0	0	0	0	0	0	0	0	0	0	0	0
0	0	0	0	0	4.602025883743045E+002	-1.5288405E+000	-2.0003589E-002	0	0	0.000000000000000E+000	13	0	0	0	0	0	0	0	0	0	0	0	0	0	0	0	0	0
0	0	0	0	0	4.602549883729807E+002	-1.5286213E+000	-2.0004861E-002	0	0	0.000000000000000E+000	13	0	0	0	0	0	0	0	0	0	0	0	0	0	0	0	0	0