					time/s	Ewe/V	I/mA			cycle number	I Range			Ns															
0	0	0	0	0	1.706001956902765E+002	3.2781431E-001	-1.0013849E-002	0	0	0.000000000000000E+000	13	0	0	0	0	0	0	0	0	0	0	0	0	0	0	0	0	0
0	0	0	0	0	1.711001956776454E+002	3.2225287E-001	-1.0019572E-002	0	0	0.000000000000000E+000	13	0	0	0	0	0	0	0	0	0	0	0	0	0	0	0	0	0
0	0	0	0	0	1.716001956650143E+002	3.1901976E-001	-1.0010033E-002	0	0	0.000000000000000E+000	13	0	0	0	0	0	0	0	0	0	0	0	0	0	0	0	0	0
0	0	0	0	0	1.721001956523833E+002	3.1662333E-001	-1.0017028E-002	0	0	0.000000000000000E+000	13	0	0	0	0	0	0	0	0	0	0	0	0	0	0	0	0	0
0	0	0	0	0	1.726001956397522E+002	3.1466019E-001	-1.0014485E-002	0	0	0.000000000000000E+000	13	0	0	0	0	0	0	0	0	0	0	0	0	0	0	0	0	0
0	0	0	0	0	1.731001956271211E+002	3.1298220E-001	-1.0016392E-002	0	0	0.000000000000000E+000	13	0	0	0	0	0	0	0	0	0	0	0	0	0	0	0	0	0
0	0	0	0	0	1.736001956144901E+002	3.1150609E-001	-1.0010033E-002	0	0	0.000000000000000E+000	13	0	0	0	0	0	0	0	0	0	0	0	0	0	0	0	0	0
0	0	0	0	0	1.741001956018590E+002	3.1018332E-001	-1.0014485E-002	0	0	0.000000000000000E+000	13	0	0	0	0	0	0	0	0	0	0	0	0	0	0	0	0	0
0	0	0	0	0	1.746001955892280E+002	3.0898228E-001	-1.0015756E-002	0	0	0.000000000000000E+000	13	0	0	0	0	0	0	0	0	0	0	0	0	0	0	0	0	0
0	0	0	0	0	1.751001955765969E+002	3.0786419E-001	-1.0020208E-002	0	0	0.000000000000000E+000	13	0	0	0	0	0	0	0	0	0	0	0	0	0	0	0	0	0
0	0	0	0	0	1.756001955639658E+002	3.0683187E-001	-1.0015121E-002	0	0	0.000000000000000E+000	13	0	0	0	0	0	0	0	0	0	0	0	0	0	0	0	0	0
0	0	0	0	0	1.761001955513348E+002	3.0586085E-001	-1.0018300E-002	0	0	0.000000000000000E+000	13	0	0	0	0	0	0	0	0	0	0	0	0	0	0	0	0	0
0	0	0	0	0	1.766001955387037E+002	3.0494890E-001	-1.0016392E-002	0	0	0.000000000000000E+000	13	0	0	0	0	0	0	0	0	0	0	0	0	0	0	0	0	0
0	0	0	0	0	1.771001955260726E+002	3.0408180E-001	-1.0020843E-002	0	0	0.000000000000000E+000	13	0	0	0	0	0	0	0	0	0	0	0	0	0	0	0	0	0
0	0	0	0	0	1.776001955134416E+002	3.0325785E-001	-1.0016392E-002	0	0	0.000000000000000E+000	13	0	0	0	0	0	0	0	0	0	0	0	0	0	0	0	0	0
0	0	0	0	0	1.781001955008105E+002	3.0247512E-001	-1.0017028E-002	0	0	0.000000000000000E+000	13	0	0	0	0	0	0	0	0	0	0	0	0	0	0	0	0	0
0	0	0	0	0	1.786001954881795E+002	3.0171573E-001	-1.0010669E-002	0	0	0.000000000000000E+000	13	0	0	0	0	0	0	0	0	0	0	0	0	0	0	0	0	0
0	0	0	0	0	1.791001954755484E+002	3.0099264E-001	-1.0014485E-002	0	0	0.000000000000000E+000	13	0	0	0	0	0	0	0	0	0	0	0	0	0	0	0	0	0
0	0	0	0	0	1.796001954629173E+002	3.0029100E-001	-1.0020208E-002	0	0	0.000000000000000E+000	13	0	0	0	0	0	0	0	0	0	0	0	0	0	0	0	0	0
0	0	0	0	0	1.801001954502863E+002	2.9962587E-001	-1.0018300E-002	0	0	0.000000000000000E+000	13	0	0	0	0	0	0	0	0	0	0	0	0	0	0	0	0	0
0	0	0	0	0	1.806001954376552E+002	2.9897350E-001	-1.0016392E-002	0	0	0.000000000000000E+000	13	0	0	0	0	0	0	0	0	0	0	0	0	0	0	0	0	0
0	0	0	0	0	1.811001954250241E+002	2.9834586E-001	-1.0005582E-002	0	0	0.000000000000000E+000	13	0	0	0	0	0	0	0	0	0	0	0	0	0	0	0	0	0
0	0	0	0	0	1.816001954123931E+002	2.9773077E-001	-1.0018300E-002	0	0	0.000000000000000E+000	13	0	0	0	0	0	0	0	0	0	0	0	0	0	0	0	0	0
0	0	0	0	0	1.821001953997620E+002	2.9713783E-001	-1.0018935E-002	0	0	0.000000000000000E+000	13	0	0	0	0	0	0	0	0	0	0	0	0	0	0	0	0	0
0	0	0	0	0	1.826001953871310E+002	2.9655612E-001	-1.0013849E-002	0	0	0.000000000000000E+000	13	0	0	0	0	0	0	0	0	0	0	0	0	0	0	0	0	0
0	0	0	0	0	1.831001953744999E+002	2.9599267E-001	-1.0010033E-002	0	0	0.000000000000000E+000	13	0	0	0	0	0	0	0	0	0	0	0	0	0	0	0	0	0
0	0	0	0	0	1.836001953618688E+002	2.9544097E-001	-1.0015121E-002	0	0	0.000000000000000E+000	13	0	0	0	0	0	0	0	0	0	0	0	0	0	0	0	0	0
0	0	0	0	0	1.841001953492378E+002	2.9490104E-001	-1.0010033E-002	0	0	0.000000000000000E+000	13	0	0	0	0	0	0	0	0	0	0	0	0	0	0	0	0	0
0	0	0	0	0	1.846001953366067E+002	2.9437274E-001	-1.0011305E-002	0	0	0.000000000000000E+000	13	0	0	0	0	0	0	0	0	0	0	0	0	0	0	0	0	0
0	0	0	0	0	1.851001953239756E+002	2.9386076E-001	-1.0010033E-002	0	0	0.000000000000000E+000	13	0	0	0	0	0	0	0	0	0	0	0	0	0	0	0	0	0
0	0	0	0	0	1.856001953113446E+002	2.9335392E-001	-1.0014485E-002	0	0	0.000000000000000E+000	13	0	0	0	0	0	0	0	0	0	0	0	0	0	0	0	0	0
0	0	0	0	0	1.861001952987135E+002	2.9285675E-001	-1.0017663E-002	0	0	0.000000000000000E+000	13	0	0	0	0	0	0	0	0	0	0	0	0	0	0	0	0	0
0	0	0	0	0	1.866001952860825E+002	2.9236856E-001	-1.0016392E-002	0	0	0.000000000000000E+000	13	0	0	0	0	0	0	0	0	0	0	0	0	0	0	0	0	0
0	0	0	0	0	1.871001952734514E+002	2.9189512E-001	-1.0008762E-002	0	0	0.000000000000000E+000	13	0	0	0	0	0	0	0	0	0	0	0	0	0	0	0	0	0
0	0	0	0	0	1.876001952608203E+002	2.9143381E-001	-1.0019572E-002	0	0	0.000000000000000E+000	13	0	0	0	0	0	0	0	0	0	0	0	0	0	0	0	0	0
0	0	0	0	0	1.881001952481893E+002	2.9097062E-001	-1.0014485E-002	0	0	0.000000000000000E+000	13	0	0	0	0	0	0	0	0	0	0	0	0	0	0	0	0	0
0	0	0	0	0	1.886001952355582E+002	2.9051208E-001	-1.0014485E-002	0	0	0.000000000000000E+000	13	0	0	0	0	0	0	0	0	0	0	0	0	0	0	0	0	0
0	0	0	0	0	1.891001952229271E+002	2.9007071E-001	-1.0019572E-002	0	0	0.000000000000000E+000	13	0	0	0	0	0	0	0	0	0	0	0	0	0	0	0	0	0
0	0	0	0	0	1.896001952102961E+002	2.8963277E-001	-1.0018300E-002	0	0	0.000000000000000E+000	13	0	0	0	0	0	0	0	0	0	0	0	0	0	0	0	0	0
0	0	0	0	0	1.901001951976650E+002	2.8919691E-001	-1.0013849E-002	0	0	0.000000000000000E+000	13	0	0	0	0	0	0	0	0	0	0	0	0	0	0	0	0	0
0	0	0	0	0	1.906001951850340E+002	2.8877845E-001	-1.0021479E-002	0	0	0.000000000000000E+000	13	0	0	0	0	0	0	0	0	0	0	0	0	0	0	0	0	0
0	0	0	0	0	1.911001951724029E+002	2.8835365E-001	-1.0014485E-002	0	0	0.000000000000000E+000	13	0	0	0	0	0	0	0	0	0	0	0	0	0	0	0	0	0
0	0	0	0	0	1.916001951597718E+002	2.8793436E-001	-1.0016392E-002	0	0	0.000000000000000E+000	13	0	0	0	0	0	0	0	0	0	0	0	0	0	0	0	0	0
0	0	0	0	0	1.921001951471408E+002	2.8752956E-001	-1.0013849E-002	0	0	0.000000000000000E+000	13	0	0	0	0	0	0	0	0	0	0	0	0	0	0	0	0	0
0	0	0	0	0	1.926001951345097E+002	2.8711933E-001	-1.0006854E-002	0	0	0.000000000000000E+000	13	0	0	0	0	0	0	0	0	0	0	0	0	0	0	0	0	0
0	0	0	0	0	1.931001951218786E+002	2.8672063E-001	-1.0017663E-002	0	0	0.000000000000000E+000	13	0	0	0	0	0	0	0	0	0	0	0	0	0	0	0	0	0
0	0	0	0	0	1.936001951092476E+002	2.8632528E-001	-1.0005582E-002	0	0	0.000000000000000E+000	13	0	0	0	0	0	0	0	0	0	0	0	0	0	0	0	0	0
0	0	0	0	0	1.941001950966165E+002	2.8592744E-001	-1.0015121E-002	0	0	0.000000000000000E+000	13	0	0	0	0	0	0	0	0	0	0	0	0	0	0	0	0	0
0	0	0	0	0	1.946001950839855E+002	2.8554457E-001	-1.0012577E-002	0	0	0.000000000000000E+000	13	0	0	0	0	0	0	0	0	0	0	0	0	0	0	0	0	0
0	0	0	0	0	1.951001950713544E+002	2.8516331E-001	-1.0016392E-002	0	0	0.000000000000000E+000	13	0	0	0	0	0	0	0	0	0	0	0	0	0	0	0	0	0
0	0	0	0	0	1.956001950587233E+002	2.8478059E-001	-1.0020208E-002	0	0	0.000000000000000E+000	13	0	0	0	0	0	0	0	0	0	0	0	0	0	0	0	0	0
0	0	0	0	0	1.961001950460923E+002	2.8440636E-001	-1.0010669E-002	0	0	0.000000000000000E+000	13	0	0	0	0	0	0	0	0	0	0	0	0	0	0	0	0	0
0	0	0	0	0	1.966001950334612E+002	2.8403059E-001	-1.0010669E-002	0	0	0.000000000000000E+000	13	0	0	0	0	0	0	0	0	0	0	0	0	0	0	0	0	0
0	0	0	0	0	1.971001950208301E+002	2.8366503E-001	-1.0011940E-002	0	0	0.000000000000000E+000	13	0	0	0	0	0	0	0	0	0	0	0	0	0	0	0	0	0
0	0	0	0	0	1.976001950081991E+002	2.8329951E-001	-1.0020208E-002	0	0	0.000000000000000E+000	13	0	0	0	0	0	0	0	0	0	0	0	0	0	0	0	0	0
0	0	0	0	0	1.981001949955680E+002	2.8293732E-001	-1.0020208E-002	0	0	0.000000000000000E+000	13	0	0	0	0	0	0	0	0	0	0	0	0	0	0	0	0	0
0	0	0	0	0	1.986001949829370E+002	2.8258038E-001	-1.0020208E-002	0	0	0.000000000000000E+000	13	0	0	0	0	0	0	0	0	0	0	0	0	0	0	0	0	0
0	0	0	0	0	1.991001949703059E+002	2.8221714E-001	-1.0010669E-002	0	0	0.000000000000000E+000	13	0	0	0	0	0	0	0	0	0	0	0	0	0	0	0	0	0
0	0	0	0	0	1.996001949576748E+002	2.8186458E-001	-1.0016392E-002	0	0	0.000000000000000E+000	13	0	0	0	0	0	0	0	0	0	0	0	0	0	0	0	0	0
0	0	0	0	0	2.001001949450438E+002	2.8151459E-001	-1.0011940E-002	0	0	0.000000000000000E+000	13	0	0	0	0	0	0	0	0	0	0	0	0	0	0	0	0	0
0	0	0	0	0	2.006001949324127E+002	2.8116587E-001	-1.0010033E-002	0	0	0.000000000000000E+000	13	0	0	0	0	0	0	0	0	0	0	0	0	0	0	0	0	0
0	0	0	0	0	2.011001949197816E+002	2.8081849E-001	-1.0011940E-002	0	0	0.000000000000000E+000	13	0	0	0	0	0	0	0	0	0	0	0	0	0	0	0	0	0
0	0	0	0	0	2.016001949071506E+002	2.8047347E-001	-1.0015121E-002	0	0	0.000000000000000E+000	13	0	0	0	0	0	0	0	0	0	0	0	0	0	0	0	0	0
0	0	0	0	0	2.021001948945195E+002	2.8014070E-001	-1.0013212E-002	0	0	0.000000000000000E+000	13	0	0	0	0	0	0	0	0	0	0	0	0	0	0	0	0	0
0	0	0	0	0	2.026001948818885E+002	2.7980050E-001	-1.0015756E-002	0	0	0.000000000000000E+000	13	0	0	0	0	0	0	0	0	0	0	0	0	0	0	0	0	0
0	0	0	0	0	2.031001948692574E+002	2.7946830E-001	-1.0011305E-002	0	0	0.000000000000000E+000	13	0	0	0	0	0	0	0	0	0	0	0	0	0	0	0	0	0
0	0	0	0	0	2.036001948566263E+002	2.7913186E-001	-1.0010669E-002	0	0	0.000000000000000E+000	13	0	0	0	0	0	0	0	0	0	0	0	0	0	0	0	0	0
0	0	0	0	0	2.041001948439953E+002	2.7880219E-001	-1.0021479E-002	0	0	0.000000000000000E+000	13	0	0	0	0	0	0	0	0	0	0	0	0	0	0	0	0	0
0	0	0	0	0	2.046001948313642E+002	2.7846852E-001	-1.0010669E-002	0	0	0.000000000000000E+000	13	0	0	0	0	0	0	0	0	0	0	0	0	0	0	0	0	0
0	0	0	0	0	2.051001948187331E+002	2.7814841E-001	-1.0016392E-002	0	0	0.000000000000000E+000	13	0	0	0	0	0	0	0	0	0	0	0	0	0	0	0	0	0
0	0	0	0	0	2.056001948061021E+002	2.7782241E-001	-1.0015756E-002	0	0	0.000000000000000E+000	13	0	0	0	0	0	0	0	0	0	0	0	0	0	0	0	0	0
0	0	0	0	0	2.061001947934710E+002	2.7749521E-001	-1.0022115E-002	0	0	0.000000000000000E+000	13	0	0	0	0	0	0	0	0	0	0	0	0	0	0	0	0	0
0	0	0	0	0	2.066001947808400E+002	2.7717423E-001	-1.0013212E-002	0	0	0.000000000000000E+000	13	0	0	0	0	0	0	0	0	0	0	0	0	0	0	0	0	0
0	0	0	0	0	2.071001947682089E+002	2.7685195E-001	-1.0018935E-002	0	0	0.000000000000000E+000	13	0	0	0	0	0	0	0	0	0	0	0	0	0	0	0	0	0
0	0	0	0	0	2.076001947555778E+002	2.7653444E-001	-1.0009397E-002	0	0	0.000000000000000E+000	13	0	0	0	0	0	0	0	0	0	0	0	0	0	0	0	0	0
0	0	0	0	0	2.081001947429468E+002	2.7621546E-001	-1.0009397E-002	0	0	0.000000000000000E+000	13	0	0	0	0	0	0	0	0	0	0	0	0	0	0	0	0	0
0	0	0	0	0	2.086001947303157E+002	2.7589300E-001	-1.0017028E-002	0	0	0.000000000000000E+000	13	0	0	0	0	0	0	0	0	0	0	0	0	0	0	0	0	0
0	0	0	0	0	2.091001947176846E+002	2.7557954E-001	-1.0013849E-002	0	0	0.000000000000000E+000	13	0	0	0	0	0	0	0	0	0	0	0	0	0	0	0	0	0
0	0	0	0	0	2.096001947050536E+002	2.7526742E-001	-1.0018935E-002	0	0	0.000000000000000E+000	13	0	0	0	0	0	0	0	0	0	0	0	0	0	0	0	0	0
0	0	0	0	0	2.101001946924225E+002	2.7495483E-001	-1.0014485E-002	0	0	0.000000000000000E+000	13	0	0	0	0	0	0	0	0	0	0	0	0	0	0	0	0	0
0	0	0	0	0	2.106001946797915E+002	2.7464125E-001	-1.0018300E-002	0	0	0.000000000000000E+000	13	0	0	0	0	0	0	0	0	0	0	0	0	0	0	0	0	0
0	0	0	0	0	2.111001946671604E+002	2.7433053E-001	-1.0018935E-002	0	0	0.000000000000000E+000	13	0	0	0	0	0	0	0	0	0	0	0	0	0	0	0	0	0
0	0	0	0	0	2.116001946545293E+002	2.7402720E-001	-1.0010033E-002	0	0	0.000000000000000E+000	13	0	0	0	0	0	0	0	0	0	0	0	0	0	0	0	0	0
0	0	0	0	0	2.121001946418983E+002	2.7371451E-001	-1.0015756E-002	0	0	0.000000000000000E+000	13	0	0	0	0	0	0	0	0	0	0	0	0	0	0	0	0	0
0	0	0	0	0	2.126001946292672E+002	2.7341041E-001	-1.0017028E-002	0	0	0.000000000000000E+000	13	0	0	0	0	0	0	0	0	0	0	0	0	0	0	0	0	0
0	0	0	0	0	2.131001946166361E+002	2.7310362E-001	-1.0010669E-002	0	0	0.000000000000000E+000	13	0	0	0	0	0	0	0	0	0	0	0	0	0	0	0	0	0
0	0	0	0	0	2.136001946040051E+002	2.7280179E-001	-1.0013212E-002	0	0	0.000000000000000E+000	13	0	0	0	0	0	0	0	0	0	0	0	0	0	0	0	0	0
0	0	0	0	0	2.141001945913740E+002	2.7249384E-001	-1.0016392E-002	0	0	0.000000000000000E+000	13	0	0	0	0	0	0	0	0	0	0	0	0	0	0	0	0	0
0	0	0	0	0	2.146001945787430E+002	2.7219352E-001	-1.0010669E-002	0	0	0.000000000000000E+000	13	0	0	0	0	0	0	0	0	0	0	0	0	0	0	0	0	0
0	0	0	0	0	2.151001945661119E+002	2.7189481E-001	-1.0013212E-002	0	0	0.000000000000000E+000	13	0	0	0	0	0	0	0	0	0	0	0	0	0	0	0	0	0
0	0	0	0	0	2.156001945534808E+002	2.7159411E-001	-1.0010669E-002	0	0	0.000000000000000E+000	13	0	0	0	0	0	0	0	0	0	0	0	0	0	0	0	0	0
0	0	0	0	0	2.161001945408498E+002	2.7129301E-001	-1.0014485E-002	0	0	0.000000000000000E+000	13	0	0	0	0	0	0	0	0	0	0	0	0	0	0	0	0	0
0	0	0	0	0	2.166001945282187E+002	2.7099317E-001	-1.0018300E-002	0	0	0.000000000000000E+000	13	0	0	0	0	0	0	0	0	0	0	0	0	0	0	0	0	0
0	0	0	0	0	2.171001945155876E+002	2.7069074E-001	-1.0017028E-002	0	0	0.000000000000000E+000	13	0	0	0	0	0	0	0	0	0	0	0	0	0	0	0	0	0
0	0	0	0	0	2.176001945029566E+002	2.7039722E-001	-1.0015756E-002	0	0	0.000000000000000E+000	13	0	0	0	0	0	0	0	0	0	0	0	0	0	0	0	0	0
0	0	0	0	0	2.181001944903255E+002	2.7010652E-001	-1.0016392E-002	0	0	0.000000000000000E+000	13	0	0	0	0	0	0	0	0	0	0	0	0	0	0	0	0	0
0	0	0	0	0	2.186001944776945E+002	2.6981047E-001	-1.0014485E-002	0	0	0.000000000000000E+000	13	0	0	0	0	0	0	0	0	0	0	0	0	0	0	0	0	0
0	0	0	0	0	2.191001944650634E+002	2.6951593E-001	-1.0010669E-002	0	0	0.000000000000000E+000	13	0	0	0	0	0	0	0	0	0	0	0	0	0	0	0	0	0
0	0	0	0	0	2.196001944524323E+002	2.6921850E-001	-1.0014485E-002	0	0	0.000000000000000E+000	13	0	0	0	0	0	0	0	0	0	0	0	0	0	0	0	0	0
0	0	0	0	0	2.201001944398013E+002	2.6892328E-001	-1.0018300E-002	0	0	0.000000000000000E+000	13	0	0	0	0	0	0	0	0	0	0	0	0	0	0	0	0	0
0	0	0	0	0	2.206001944271702E+002	2.6863062E-001	-1.0012577E-002	0	0	0.000000000000000E+000	13	0	0	0	0	0	0	0	0	0	0	0	0	0	0	0	0	0
0	0	0	0	0	2.211001944145391E+002	2.6833299E-001	-1.0016392E-002	0	0	0.000000000000000E+000	13	0	0	0	0	0	0	0	0	0	0	0	0	0	0	0	0	0
0	0	0	0	0	2.216001944019081E+002	2.6803714E-001	-1.0016392E-002	0	0	0.000000000000000E+000	13	0	0	0	0	0	0	0	0	0	0	0	0	0	0	0	0	0
0	0	0	0	0	2.221001943892770E+002	2.6775169E-001	-1.0010033E-002	0	0	0.000000000000000E+000	13	0	0	0	0	0	0	0	0	0	0	0	0	0	0	0	0	0
0	0	0	0	0	2.226001943766460E+002	2.6746154E-001	-1.0013212E-002	0	0	0.000000000000000E+000	13	0	0	0	0	0	0	0	0	0	0	0	0	0	0	0	0	0
0	0	0	0	0	2.231001943640149E+002	2.6716790E-001	-1.0013849E-002	0	0	0.000000000000000E+000	13	0	0	0	0	0	0	0	0	0	0	0	0	0	0	0	0	0
0	0	0	0	0	2.236001943513838E+002	2.6687208E-001	-1.0013849E-002	0	0	0.000000000000000E+000	13	0	0	0	0	0	0	0	0	0	0	0	0	0	0	0	0	0
0	0	0	0	0	2.241001943387528E+002	2.6658130E-001	-1.0015756E-002	0	0	0.000000000000000E+000	13	0	0	0	0	0	0	0	0	0	0	0	0	0	0	0	0	0
0	0	0	0	0	2.246001943261217E+002	2.6628622E-001	-1.0019572E-002	0	0	0.000000000000000E+000	13	0	0	0	0	0	0	0	0	0	0	0	0	0	0	0	0	0
0	0	0	0	0	2.251001943134906E+002	2.6600140E-001	-1.0009397E-002	0	0	0.000000000000000E+000	13	0	0	0	0	0	0	0	0	0	0	0	0	0	0	0	0	0
0	0	0	0	0	2.256001943008596E+002	2.6571488E-001	-1.0017663E-002	0	0	0.000000000000000E+000	13	0	0	0	0	0	0	0	0	0	0	0	0	0	0	0	0	0
0	0	0	0	0	2.261001942882285E+002	2.6542372E-001	-1.0015756E-002	0	0	0.000000000000000E+000	13	0	0	0	0	0	0	0	0	0	0	0	0	0	0	0	0	0
0	0	0	0	0	2.266001942755975E+002	2.6513004E-001	-1.0019572E-002	0	0	0.000000000000000E+000	13	0	0	0	0	0	0	0	0	0	0	0	0	0	0	0	0	0
0	0	0	0	0	2.271001942629664E+002	2.6484373E-001	-1.0016392E-002	0	0	0.000000000000000E+000	13	0	0	0	0	0	0	0	0	0	0	0	0	0	0	0	0	0
0	0	0	0	0	2.276001942503353E+002	2.6454708E-001	-1.0013849E-002	0	0	0.000000000000000E+000	13	0	0	0	0	0	0	0	0	0	0	0	0	0	0	0	0	0
0	0	0	0	0	2.281001942377043E+002	2.6426432E-001	-1.0011940E-002	0	0	0.000000000000000E+000	13	0	0	0	0	0	0	0	0	0	0	0	0	0	0	0	0	0
0	0	0	0	0	2.286001942250732E+002	2.6396969E-001	-1.0012577E-002	0	0	0.000000000000000E+000	13	0	0	0	0	0	0	0	0	0	0	0	0	0	0	0	0	0
0	0	0	0	0	2.291001942124421E+002	2.6368499E-001	-1.0013849E-002	0	0	0.000000000000000E+000	13	0	0	0	0	0	0	0	0	0	0	0	0	0	0	0	0	0
0	0	0	0	0	2.296001941998111E+002	2.6339838E-001	-1.0011305E-002	0	0	0.000000000000000E+000	13	0	0	0	0	0	0	0	0	0	0	0	0	0	0	0	0	0
0	0	0	0	0	2.301001941871800E+002	2.6310650E-001	-1.0015756E-002	0	0	0.000000000000000E+000	13	0	0	0	0	0	0	0	0	0	0	0	0	0	0	0	0	0
0	0	0	0	0	2.306001941745490E+002	2.6281986E-001	-1.0013212E-002	0	0	0.000000000000000E+000	13	0	0	0	0	0	0	0	0	0	0	0	0	0	0	0	0	0
0	0	0	0	0	2.311001941619179E+002	2.6252657E-001	-1.0016392E-002	0	0	0.000000000000000E+000	13	0	0	0	0	0	0	0	0	0	0	0	0	0	0	0	0	0
0	0	0	0	0	2.316001941492868E+002	2.6224014E-001	-1.0014485E-002	0	0	0.000000000000000E+000	13	0	0	0	0	0	0	0	0	0	0	0	0	0	0	0	0	0
0	0	0	0	0	2.321001941366558E+002	2.6194909E-001	-1.0017663E-002	0	0	0.000000000000000E+000	13	0	0	0	0	0	0	0	0	0	0	0	0	0	0	0	0	0
0	0	0	0	0	2.326001941240247E+002	2.6166043E-001	-1.0012577E-002	0	0	0.000000000000000E+000	13	0	0	0	0	0	0	0	0	0	0	0	0	0	0	0	0	0
0	0	0	0	0	2.331001941113936E+002	2.6136747E-001	-1.0007489E-002	0	0	0.000000000000000E+000	13	0	0	0	0	0	0	0	0	0	0	0	0	0	0	0	0	0
0	0	0	0	0	2.336001940987626E+002	2.6108077E-001	-1.0012577E-002	0	0	0.000000000000000E+000	13	0	0	0	0	0	0	0	0	0	0	0	0	0	0	0	0	0
0	0	0	0	0	2.341001940861315E+002	2.6078853E-001	-1.0008762E-002	0	0	0.000000000000000E+000	13	0	0	0	0	0	0	0	0	0	0	0	0	0	0	0	0	0
0	0	0	0	0	2.346001940735005E+002	2.6049998E-001	-1.0016392E-002	0	0	0.000000000000000E+000	13	0	0	0	0	0	0	0	0	0	0	0	0	0	0	0	0	0
0	0	0	0	0	2.351001940608694E+002	2.6020756E-001	-1.0010669E-002	0	0	0.000000000000000E+000	13	0	0	0	0	0	0	0	0	0	0	0	0	0	0	0	0	0
0	0	0	0	0	2.356001940482383E+002	2.5992090E-001	-1.0008126E-002	0	0	0.000000000000000E+000	13	0	0	0	0	0	0	0	0	0	0	0	0	0	0	0	0	0
0	0	0	0	0	2.361001940356073E+002	2.5963163E-001	-1.0013849E-002	0	0	0.000000000000000E+000	13	0	0	0	0	0	0	0	0	0	0	0	0	0	0	0	0	0
0	0	0	0	0	2.366001940229762E+002	2.5934276E-001	-1.0013849E-002	0	0	0.000000000000000E+000	13	0	0	0	0	0	0	0	0	0	0	0	0	0	0	0	0	0
0	0	0	0	0	2.371001940103451E+002	2.5904745E-001	-1.0018300E-002	0	0	0.000000000000000E+000	13	0	0	0	0	0	0	0	0	0	0	0	0	0	0	0	0	0
0	0	0	0	0	2.376001939977141E+002	2.5875989E-001	-1.0010033E-002	0	0	0.000000000000000E+000	13	0	0	0	0	0	0	0	0	0	0	0	0	0	0	0	0	0
0	0	0	0	0	2.381001939850830E+002	2.5846758E-001	-1.0012577E-002	0	0	0.000000000000000E+000	13	0	0	0	0	0	0	0	0	0	0	0	0	0	0	0	0	0
0	0	0	0	0	2.386001939724520E+002	2.5818118E-001	-1.0010033E-002	0	0	0.000000000000000E+000	13	0	0	0	0	0	0	0	0	0	0	0	0	0	0	0	0	0
0	0	0	0	0	2.391001939598209E+002	2.5787821E-001	-1.0017028E-002	0	0	0.000000000000000E+000	13	0	0	0	0	0	0	0	0	0	0	0	0	0	0	0	0	0
0	0	0	0	0	2.396001939471898E+002	2.5758952E-001	-1.0011940E-002	0	0	0.000000000000000E+000	13	0	0	0	0	0	0	0	0	0	0	0	0	0	0	0	0	0
0	0	0	0	0	2.401001939345588E+002	2.5729689E-001	-1.0017663E-002	0	0	0.000000000000000E+000	13	0	0	0	0	0	0	0	0	0	0	0	0	0	0	0	0	0
0	0	0	0	0	2.406001939219277E+002	2.5700924E-001	-1.0013849E-002	0	0	0.000000000000000E+000	13	0	0	0	0	0	0	0	0	0	0	0	0	0	0	0	0	0
0	0	0	0	0	2.411001939092967E+002	2.5671023E-001	-1.0018935E-002	0	0	0.000000000000000E+000	13	0	0	0	0	0	0	0	0	0	0	0	0	0	0	0	0	0
0	0	0	0	0	2.416001938966656E+002	2.5641567E-001	-1.0015756E-002	0	0	0.000000000000000E+000	13	0	0	0	0	0	0	0	0	0	0	0	0	0	0	0	0	0
0	0	0	0	0	2.421001938840345E+002	2.5612074E-001	-1.0011940E-002	0	0	0.000000000000000E+000	13	0	0	0	0	0	0	0	0	0	0	0	0	0	0	0	0	0
0	0	0	0	0	2.426001938714035E+002	2.5582600E-001	-1.0015121E-002	0	0	0.000000000000000E+000	13	0	0	0	0	0	0	0	0	0	0	0	0	0	0	0	0	0
0	0	0	0	0	2.431001938587724E+002	2.5552893E-001	-1.0013849E-002	0	0	0.000000000000000E+000	13	0	0	0	0	0	0	0	0	0	0	0	0	0	0	0	0	0
0	0	0	0	0	2.436001938461413E+002	2.5522956E-001	-1.0012577E-002	0	0	0.000000000000000E+000	13	0	0	0	0	0	0	0	0	0	0	0	0	0	0	0	0	0
0	0	0	0	0	2.441001938335103E+002	2.5493541E-001	-1.0011305E-002	0	0	0.000000000000000E+000	13	0	0	0	0	0	0	0	0	0	0	0	0	0	0	0	0	0
0	0	0	0	0	2.446001938208792E+002	2.5463793E-001	-1.0013212E-002	0	0	0.000000000000000E+000	13	0	0	0	0	0	0	0	0	0	0	0	0	0	0	0	0	0
0	0	0	0	0	2.451001938082482E+002	2.5433636E-001	-1.0010669E-002	0	0	0.000000000000000E+000	13	0	0	0	0	0	0	0	0	0	0	0	0	0	0	0	0	0
0	0	0	0	0	2.456001937956171E+002	2.5403586E-001	-1.0012577E-002	0	0	0.000000000000000E+000	13	0	0	0	0	0	0	0	0	0	0	0	0	0	0	0	0	0
0	0	0	0	0	2.461001937829860E+002	2.5373599E-001	-1.0011305E-002	0	0	0.000000000000000E+000	13	0	0	0	0	0	0	0	0	0	0	0	0	0	0	0	0	0
0	0	0	0	0	2.466001937703550E+002	2.5343379E-001	-1.0011940E-002	0	0	0.000000000000000E+000	13	0	0	0	0	0	0	0	0	0	0	0	0	0	0	0	0	0
0	0	0	0	0	2.471001937577239E+002	2.5313464E-001	-1.0013212E-002	0	0	0.000000000000000E+000	13	0	0	0	0	0	0	0	0	0	0	0	0	0	0	0	0	0
0	0	0	0	0	2.476001937450928E+002	2.5282621E-001	-1.0018300E-002	0	0	0.000000000000000E+000	13	0	0	0	0	0	0	0	0	0	0	0	0	0	0	0	0	0
0	0	0	0	0	2.481001937324618E+002	2.5252703E-001	-1.0013212E-002	0	0	0.000000000000000E+000	13	0	0	0	0	0	0	0	0	0	0	0	0	0	0	0	0	0
0	0	0	0	0	2.486001937198307E+002	2.5222236E-001	-1.0013849E-002	0	0	0.000000000000000E+000	13	0	0	0	0	0	0	0	0	0	0	0	0	0	0	0	0	0
0	0	0	0	0	2.491001937071997E+002	2.5191769E-001	-1.0018300E-002	0	0	0.000000000000000E+000	13	0	0	0	0	0	0	0	0	0	0	0	0	0	0	0	0	0
0	0	0	0	0	2.496001936945686E+002	2.5160909E-001	-1.0013212E-002	0	0	0.000000000000000E+000	13	0	0	0	0	0	0	0	0	0	0	0	0	0	0	0	0	0
0	0	0	0	0	2.501001936819375E+002	2.5130841E-001	-1.0016392E-002	0	0	0.000000000000000E+000	13	0	0	0	0	0	0	0	0	0	0	0	0	0	0	0	0	0
0	0	0	0	0	2.506001936693065E+002	2.5100857E-001	-1.0015121E-002	0	0	0.000000000000000E+000	13	0	0	0	0	0	0	0	0	0	0	0	0	0	0	0	0	0
0	0	0	0	0	2.511001936566754E+002	2.5070247E-001	-1.0014485E-002	0	0	0.000000000000000E+000	13	0	0	0	0	0	0	0	0	0	0	0	0	0	0	0	0	0
0	0	0	0	0	2.516001936440443E+002	2.5039265E-001	-1.0015756E-002	0	0	0.000000000000000E+000	13	0	0	0	0	0	0	0	0	0	0	0	0	0	0	0	0	0
0	0	0	0	0	2.521001936314133E+002	2.5008363E-001	-1.0017663E-002	0	0	0.000000000000000E+000	13	0	0	0	0	0	0	0	0	0	0	0	0	0	0	0	0	0
0	0	0	0	0	2.526001936187822E+002	2.4977382E-001	-1.0011305E-002	0	0	0.000000000000000E+000	13	0	0	0	0	0	0	0	0	0	0	0	0	0	0	0	0	0
0	0	0	0	0	2.531001936061512E+002	2.4946390E-001	-1.0013849E-002	0	0	0.000000000000000E+000	13	0	0	0	0	0	0	0	0	0	0	0	0	0	0	0	0	0
0	0	0	0	0	2.536001935935201E+002	2.4915008E-001	-1.0016392E-002	0	0	0.000000000000000E+000	13	0	0	0	0	0	0	0	0	0	0	0	0	0	0	0	0	0
0	0	0	0	0	2.541001935808890E+002	2.4883404E-001	-1.0015756E-002	0	0	0.000000000000000E+000	13	0	0	0	0	0	0	0	0	0	0	0	0	0	0	0	0	0
0	0	0	0	0	2.546001935682580E+002	2.4852760E-001	-1.0015121E-002	0	0	0.000000000000000E+000	13	0	0	0	0	0	0	0	0	0	0	0	0	0	0	0	0	0
0	0	0	0	0	2.551001935556269E+002	2.4821173E-001	-1.0011940E-002	0	0	0.000000000000000E+000	13	0	0	0	0	0	0	0	0	0	0	0	0	0	0	0	0	0
0	0	0	0	0	2.556001935429958E+002	2.4789271E-001	-1.0013212E-002	0	0	0.000000000000000E+000	13	0	0	0	0	0	0	0	0	0	0	0	0	0	0	0	0	0
0	0	0	0	0	2.561001935303648E+002	2.4757972E-001	-1.0015121E-002	0	0	0.000000000000000E+000	13	0	0	0	0	0	0	0	0	0	0	0	0	0	0	0	0	0
0	0	0	0	0	2.566001935177337E+002	2.4725708E-001	-1.0021479E-002	0	0	0.000000000000000E+000	13	0	0	0	0	0	0	0	0	0	0	0	0	0	0	0	0	0
0	0	0	0	0	2.571001935051027E+002	2.4693216E-001	-1.0015756E-002	0	0	0.000000000000000E+000	13	0	0	0	0	0	0	0	0	0	0	0	0	0	0	0	0	0
0	0	0	0	0	2.576001934924716E+002	2.4661066E-001	-1.0015121E-002	0	0	0.000000000000000E+000	13	0	0	0	0	0	0	0	0	0	0	0	0	0	0	0	0	0
0	0	0	0	0	2.581001934798405E+002	2.4628924E-001	-1.0016392E-002	0	0	0.000000000000000E+000	13	0	0	0	0	0	0	0	0	0	0	0	0	0	0	0	0	0
0	0	0	0	0	2.586001934672095E+002	2.4596806E-001	-1.0017663E-002	0	0	0.000000000000000E+000	13	0	0	0	0	0	0	0	0	0	0	0	0	0	0	0	0	0
0	0	0	0	0	2.591001934545784E+002	2.4563850E-001	-1.0017663E-002	0	0	0.000000000000000E+000	13	0	0	0	0	0	0	0	0	0	0	0	0	0	0	0	0	0
0	0	0	0	0	2.596001934419473E+002	2.4531336E-001	-1.0015756E-002	0	0	0.000000000000000E+000	13	0	0	0	0	0	0	0	0	0	0	0	0	0	0	0	0	0
0	0	0	0	0	2.601001934293163E+002	2.4497908E-001	-1.0015756E-002	0	0	0.000000000000000E+000	13	0	0	0	0	0	0	0	0	0	0	0	0	0	0	0	0	0
0	0	0	0	0	2.606001934166852E+002	2.4465390E-001	-1.0020208E-002	0	0	0.000000000000000E+000	13	0	0	0	0	0	0	0	0	0	0	0	0	0	0	0	0	0
0	0	0	0	0	2.611001934040542E+002	2.4431759E-001	-1.0018935E-002	0	0	0.000000000000000E+000	13	0	0	0	0	0	0	0	0	0	0	0	0	0	0	0	0	0
0	0	0	0	0	2.616001933914231E+002	2.4398738E-001	-1.0012577E-002	0	0	0.000000000000000E+000	13	0	0	0	0	0	0	0	0	0	0	0	0	0	0	0	0	0
0	0	0	0	0	2.621001933787920E+002	2.4365853E-001	-1.0017028E-002	0	0	0.000000000000000E+000	13	0	0	0	0	0	0	0	0	0	0	0	0	0	0	0	0	0
0	0	0	0	0	2.626001933661610E+002	2.4331759E-001	-1.0019572E-002	0	0	0.000000000000000E+000	13	0	0	0	0	0	0	0	0	0	0	0	0	0	0	0	0	0
0	0	0	0	0	2.631001933535299E+002	2.4298029E-001	-1.0004946E-002	0	0	0.000000000000000E+000	13	0	0	0	0	0	0	0	0	0	0	0	0	0	0	0	0	0
0	0	0	0	0	2.636001933408988E+002	2.4264142E-001	-1.0016392E-002	0	0	0.000000000000000E+000	13	0	0	0	0	0	0	0	0	0	0	0	0	0	0	0	0	0
0	0	0	0	0	2.641001933282678E+002	2.4229872E-001	-1.0016392E-002	0	0	0.000000000000000E+000	13	0	0	0	0	0	0	0	0	0	0	0	0	0	0	0	0	0
0	0	0	0	0	2.646001933156367E+002	2.4195240E-001	-1.0013212E-002	0	0	0.000000000000000E+000	13	0	0	0	0	0	0	0	0	0	0	0	0	0	0	0	0	0
0	0	0	0	0	2.651001933030057E+002	2.4161033E-001	-1.0012577E-002	0	0	0.000000000000000E+000	13	0	0	0	0	0	0	0	0	0	0	0	0	0	0	0	0	0
0	0	0	0	0	2.656001932903746E+002	2.4126646E-001	-1.0016392E-002	0	0	0.000000000000000E+000	13	0	0	0	0	0	0	0	0	0	0	0	0	0	0	0	0	0
0	0	0	0	0	2.661001932777435E+002	2.4092105E-001	-1.0018300E-002	0	0	0.000000000000000E+000	13	0	0	0	0	0	0	0	0	0	0	0	0	0	0	0	0	0
0	0	0	0	0	2.666001932651125E+002	2.4057287E-001	-1.0013849E-002	0	0	0.000000000000000E+000	13	0	0	0	0	0	0	0	0	0	0	0	0	0	0	0	0	0
0	0	0	0	0	2.671001932524814E+002	2.4022040E-001	-1.0009397E-002	0	0	0.000000000000000E+000	13	0	0	0	0	0	0	0	0	0	0	0	0	0	0	0	0	0
0	0	0	0	0	2.676001932398503E+002	2.3986937E-001	-1.0021479E-002	0	0	0.000000000000000E+000	13	0	0	0	0	0	0	0	0	0	0	0	0	0	0	0	0	0
0	0	0	0	0	2.681001932272193E+002	2.3950785E-001	-1.0018935E-002	0	0	0.000000000000000E+000	13	0	0	0	0	0	0	0	0	0	0	0	0	0	0	0	0	0
0	0	0	0	0	2.686001932145882E+002	2.3915063E-001	-1.0019572E-002	0	0	0.000000000000000E+000	13	0	0	0	0	0	0	0	0	0	0	0	0	0	0	0	0	0
0	0	0	0	0	2.691001932019572E+002	2.3879947E-001	-1.0015121E-002	0	0	0.000000000000000E+000	13	0	0	0	0	0	0	0	0	0	0	0	0	0	0	0	0	0
0	0	0	0	0	2.696001931893261E+002	2.3843658E-001	-1.0019572E-002	0	0	0.000000000000000E+000	13	0	0	0	0	0	0	0	0	0	0	0	0	0	0	0	0	0
0	0	0	0	0	2.701001931766950E+002	2.3807250E-001	-1.0016392E-002	0	0	0.000000000000000E+000	13	0	0	0	0	0	0	0	0	0	0	0	0	0	0	0	0	0
0	0	0	0	0	2.706001931640640E+002	2.3770691E-001	-1.0013849E-002	0	0	0.000000000000000E+000	13	0	0	0	0	0	0	0	0	0	0	0	0	0	0	0	0	0
0	0	0	0	0	2.711001931514329E+002	2.3734333E-001	-1.0015756E-002	0	0	0.000000000000000E+000	13	0	0	0	0	0	0	0	0	0	0	0	0	0	0	0	0	0
0	0	0	0	0	2.716001931388018E+002	2.3697071E-001	-1.0008126E-002	0	0	0.000000000000000E+000	13	0	0	0	0	0	0	0	0	0	0	0	0	0	0	0	0	0
0	0	0	0	0	2.721001931261708E+002	2.3659579E-001	-1.0015121E-002	0	0	0.000000000000000E+000	13	0	0	0	0	0	0	0	0	0	0	0	0	0	0	0	0	0
0	0	0	0	0	2.726001931135397E+002	2.3622435E-001	-1.0013849E-002	0	0	0.000000000000000E+000	13	0	0	0	0	0	0	0	0	0	0	0	0	0	0	0	0	0
0	0	0	0	0	2.731001931009087E+002	2.3584725E-001	-1.0013849E-002	0	0	0.000000000000000E+000	13	0	0	0	0	0	0	0	0	0	0	0	0	0	0	0	0	0
0	0	0	0	0	2.736001930882776E+002	2.3546268E-001	-1.0011940E-002	0	0	0.000000000000000E+000	13	0	0	0	0	0	0	0	0	0	0	0	0	0	0	0	0	0
0	0	0	0	0	2.741001930756465E+002	2.3508148E-001	-1.0011940E-002	0	0	0.000000000000000E+000	13	0	0	0	0	0	0	0	0	0	0	0	0	0	0	0	0	0
0	0	0	0	0	2.746001930630155E+002	2.3469545E-001	-1.0011305E-002	0	0	0.000000000000000E+000	13	0	0	0	0	0	0	0	0	0	0	0	0	0	0	0	0	0
0	0	0	0	0	2.751001930503844E+002	2.3430859E-001	-1.0011940E-002	0	0	0.000000000000000E+000	13	0	0	0	0	0	0	0	0	0	0	0	0	0	0	0	0	0
0	0	0	0	0	2.756001930377533E+002	2.3391619E-001	-1.0020843E-002	0	0	0.000000000000000E+000	13	0	0	0	0	0	0	0	0	0	0	0	0	0	0	0	0	0
0	0	0	0	0	2.761001930251223E+002	2.3352213E-001	-1.0019572E-002	0	0	0.000000000000000E+000	13	0	0	0	0	0	0	0	0	0	0	0	0	0	0	0	0	0
0	0	0	0	0	2.766001930124912E+002	2.3312575E-001	-1.0018300E-002	0	0	0.000000000000000E+000	13	0	0	0	0	0	0	0	0	0	0	0	0	0	0	0	0	0
0	0	0	0	0	2.771001929998602E+002	2.3272444E-001	-1.0018935E-002	0	0	0.000000000000000E+000	13	0	0	0	0	0	0	0	0	0	0	0	0	0	0	0	0	0
0	0	0	0	0	2.776001929872291E+002	2.3231986E-001	-1.0010033E-002	0	0	0.000000000000000E+000	13	0	0	0	0	0	0	0	0	0	0	0	0	0	0	0	0	0
0	0	0	0	0	2.781001929745980E+002	2.3191871E-001	-1.0013212E-002	0	0	0.000000000000000E+000	13	0	0	0	0	0	0	0	0	0	0	0	0	0	0	0	0	0
0	0	0	0	0	2.786001929619670E+002	2.3151211E-001	-1.0013212E-002	0	0	0.000000000000000E+000	13	0	0	0	0	0	0	0	0	0	0	0	0	0	0	0	0	0
0	0	0	0	0	2.791001929493359E+002	2.3110475E-001	-1.0015756E-002	0	0	0.000000000000000E+000	13	0	0	0	0	0	0	0	0	0	0	0	0	0	0	0	0	0
0	0	0	0	0	2.796001929367048E+002	2.3068996E-001	-1.0009397E-002	0	0	0.000000000000000E+000	13	0	0	0	0	0	0	0	0	0	0	0	0	0	0	0	0	0
0	0	0	0	0	2.801001929240738E+002	2.3027530E-001	-1.0013212E-002	0	0	0.000000000000000E+000	13	0	0	0	0	0	0	0	0	0	0	0	0	0	0	0	0	0
0	0	0	0	0	2.806001929114427E+002	2.2985965E-001	-1.0018300E-002	0	0	0.000000000000000E+000	13	0	0	0	0	0	0	0	0	0	0	0	0	0	0	0	0	0
0	0	0	0	0	2.811001928988117E+002	2.2943145E-001	-1.0020208E-002	0	0	0.000000000000000E+000	13	0	0	0	0	0	0	0	0	0	0	0	0	0	0	0	0	0
0	0	0	0	0	2.816001928861806E+002	2.2900416E-001	-1.0019572E-002	0	0	0.000000000000000E+000	13	0	0	0	0	0	0	0	0	0	0	0	0	0	0	0	0	0
0	0	0	0	0	2.821001928735495E+002	2.2857431E-001	-1.0018300E-002	0	0	0.000000000000000E+000	13	0	0	0	0	0	0	0	0	0	0	0	0	0	0	0	0	0
0	0	0	0	0	2.826001928609185E+002	2.2814229E-001	-1.0010669E-002	0	0	0.000000000000000E+000	13	0	0	0	0	0	0	0	0	0	0	0	0	0	0	0	0	0
0	0	0	0	0	2.831001928482874E+002	2.2770369E-001	-1.0014485E-002	0	0	0.000000000000000E+000	13	0	0	0	0	0	0	0	0	0	0	0	0	0	0	0	0	0
0	0	0	0	0	2.836001928356563E+002	2.2725742E-001	-1.0015756E-002	0	0	0.000000000000000E+000	13	0	0	0	0	0	0	0	0	0	0	0	0	0	0	0	0	0
0	0	0	0	0	2.841001928230253E+002	2.2681080E-001	-1.0016392E-002	0	0	0.000000000000000E+000	13	0	0	0	0	0	0	0	0	0	0	0	0	0	0	0	0	0
0	0	0	0	0	2.846001928103942E+002	2.2636198E-001	-1.0015756E-002	0	0	0.000000000000000E+000	13	0	0	0	0	0	0	0	0	0	0	0	0	0	0	0	0	0
0	0	0	0	0	2.851001927977632E+002	2.2590843E-001	-1.0017663E-002	0	0	0.000000000000000E+000	13	0	0	0	0	0	0	0	0	0	0	0	0	0	0	0	0	0
0	0	0	0	0	2.856001927851321E+002	2.2545677E-001	-1.0019572E-002	0	0	0.000000000000000E+000	13	0	0	0	0	0	0	0	0	0	0	0	0	0	0	0	0	0
0	0	0	0	0	2.861001927725010E+002	2.2499603E-001	-1.0018300E-002	0	0	0.000000000000000E+000	13	0	0	0	0	0	0	0	0	0	0	0	0	0	0	0	0	0
0	0	0	0	0	2.866001927598700E+002	2.2452477E-001	-1.0012577E-002	0	0	0.000000000000000E+000	13	0	0	0	0	0	0	0	0	0	0	0	0	0	0	0	0	0
0	0	0	0	0	2.871001927472389E+002	2.2405712E-001	-1.0014485E-002	0	0	0.000000000000000E+000	13	0	0	0	0	0	0	0	0	0	0	0	0	0	0	0	0	0
0	0	0	0	0	2.876001927346078E+002	2.2357593E-001	-1.0019572E-002	0	0	0.000000000000000E+000	13	0	0	0	0	0	0	0	0	0	0	0	0	0	0	0	0	0
0	0	0	0	0	2.881001927219768E+002	2.2309782E-001	-1.0011305E-002	0	0	0.000000000000000E+000	13	0	0	0	0	0	0	0	0	0	0	0	0	0	0	0	0	0
0	0	0	0	0	2.886001927093457E+002	2.2261085E-001	-1.0010669E-002	0	0	0.000000000000000E+000	13	0	0	0	0	0	0	0	0	0	0	0	0	0	0	0	0	0
0	0	0	0	0	2.891001926967147E+002	2.2211671E-001	-1.0017028E-002	0	0	0.000000000000000E+000	13	0	0	0	0	0	0	0	0	0	0	0	0	0	0	0	0	0
0	0	0	0	0	2.896001926840836E+002	2.2162357E-001	-1.0008126E-002	0	0	0.000000000000000E+000	13	0	0	0	0	0	0	0	0	0	0	0	0	0	0	0	0	0
0	0	0	0	0	2.901001926714525E+002	2.2112465E-001	-1.0022115E-002	0	0	0.000000000000000E+000	13	0	0	0	0	0	0	0	0	0	0	0	0	0	0	0	0	0
0	0	0	0	0	2.901525926701288E+002	2.2084250E-001	-1.0016392E-002	0	0	0.000000000000000E+000	13	0	0	0	0	0	0	0	0	0	0	0	0	0	0	0	0	0