					time/s	Ewe/V	I/mA			cycle number	I Range			Ns															
0	0	0	0	0	4.999999873689376E-001	3.3439651E-001	-1.0097295E-003	0	0	0.000000000000000E+000	13	0	0	0	0	0	0	0	0	0	0	0	0	0	0	0	0	0
0	0	0	0	0	9.999999747378752E-001	3.3382443E-001	-1.0122730E-003	0	0	0.000000000000000E+000	13	0	0	0	0	0	0	0	0	0	0	0	0	0	0	0	0	0
0	0	0	0	0	1.499999962106813E+000	3.3347321E-001	-1.0167243E-003	0	0	0.000000000000000E+000	13	0	0	0	0	0	0	0	0	0	0	0	0	0	0	0	0	0
0	0	0	0	0	1.999999949475750E+000	3.3321798E-001	-1.0078218E-003	0	0	0.000000000000000E+000	13	0	0	0	0	0	0	0	0	0	0	0	0	0	0	0	0	0
0	0	0	0	0	2.499999936844688E+000	3.3300653E-001	-1.0148166E-003	0	0	0.000000000000000E+000	13	0	0	0	0	0	0	0	0	0	0	0	0	0	0	0	0	0
0	0	0	0	0	2.999999924213625E+000	3.3282495E-001	-1.0205396E-003	0	0	0.000000000000000E+000	13	0	0	0	0	0	0	0	0	0	0	0	0	0	0	0	0	0
0	0	0	0	0	3.499999911582563E+000	3.3267704E-001	-1.0154524E-003	0	0	0.000000000000000E+000	13	0	0	0	0	0	0	0	0	0	0	0	0	0	0	0	0	0
0	0	0	0	0	3.999999898951501E+000	3.3253768E-001	-1.0129089E-003	0	0	0.000000000000000E+000	13	0	0	0	0	0	0	0	0	0	0	0	0	0	0	0	0	0
0	0	0	0	0	4.499999886320438E+000	3.3241847E-001	-1.0103654E-003	0	0	0.000000000000000E+000	13	0	0	0	0	0	0	0	0	0	0	0	0	0	0	0	0	0
0	0	0	0	0	4.999999873689376E+000	3.3230728E-001	-1.0116372E-003	0	0	0.000000000000000E+000	13	0	0	0	0	0	0	0	0	0	0	0	0	0	0	0	0	0
0	0	0	0	0	5.499999861058313E+000	3.3221102E-001	-1.0167243E-003	0	0	0.000000000000000E+000	13	0	0	0	0	0	0	0	0	0	0	0	0	0	0	0	0	0
0	0	0	0	0	5.999999848427251E+000	3.3211949E-001	-1.0179960E-003	0	0	0.000000000000000E+000	13	0	0	0	0	0	0	0	0	0	0	0	0	0	0	0	0	0
0	0	0	0	0	6.499999835796189E+000	3.3203948E-001	-1.0129089E-003	0	0	0.000000000000000E+000	13	0	0	0	0	0	0	0	0	0	0	0	0	0	0	0	0	0
0	0	0	0	0	6.999999823165126E+000	3.3196050E-001	-1.0129089E-003	0	0	0.000000000000000E+000	13	0	0	0	0	0	0	0	0	0	0	0	0	0	0	0	0	0
0	0	0	0	0	7.499999810534064E+000	3.3189026E-001	-1.0103654E-003	0	0	0.000000000000000E+000	13	0	0	0	0	0	0	0	0	0	0	0	0	0	0	0	0	0
0	0	0	0	0	7.999999797903001E+000	3.3182552E-001	-1.0110013E-003	0	0	0.000000000000000E+000	13	0	0	0	0	0	0	0	0	0	0	0	0	0	0	0	0	0
0	0	0	0	0	8.499999785271939E+000	3.3176255E-001	-1.0065500E-003	0	0	0.000000000000000E+000	13	0	0	0	0	0	0	0	0	0	0	0	0	0	0	0	0	0
0	0	0	0	0	8.999999772640876E+000	3.3170196E-001	-1.0135447E-003	0	0	0.000000000000000E+000	13	0	0	0	0	0	0	0	0	0	0	0	0	0	0	0	0	0
0	0	0	0	0	9.499999760009814E+000	3.3165219E-001	-1.0141807E-003	0	0	0.000000000000000E+000	13	0	0	0	0	0	0	0	0	0	0	0	0	0	0	0	0	0
0	0	0	0	0	9.999999747378752E+000	3.3160341E-001	-1.0167243E-003	0	0	0.000000000000000E+000	13	0	0	0	0	0	0	0	0	0	0	0	0	0	0	0	0	0
0	0	0	0	0	1.049999973474769E+001	3.3155769E-001	-1.0110013E-003	0	0	0.000000000000000E+000	13	0	0	0	0	0	0	0	0	0	0	0	0	0	0	0	0	0
0	0	0	0	0	1.099999972211663E+001	3.3151311E-001	-1.0205396E-003	0	0	0.000000000000000E+000	13	0	0	0	0	0	0	0	0	0	0	0	0	0	0	0	0	0
0	0	0	0	0	1.149999970948556E+001	3.3147231E-001	-1.0173600E-003	0	0	0.000000000000000E+000	13	0	0	0	0	0	0	0	0	0	0	0	0	0	0	0	0	0
0	0	0	0	0	1.199999969685450E+001	3.3143541E-001	-1.0116372E-003	0	0	0.000000000000000E+000	13	0	0	0	0	0	0	0	0	0	0	0	0	0	0	0	0	0
0	0	0	0	0	1.249999968422344E+001	3.3139727E-001	-1.0110013E-003	0	0	0.000000000000000E+000	13	0	0	0	0	0	0	0	0	0	0	0	0	0	0	0	0	0
0	0	0	0	0	1.299999967159238E+001	3.3136311E-001	-1.0148166E-003	0	0	0.000000000000000E+000	13	0	0	0	0	0	0	0	0	0	0	0	0	0	0	0	0	0
0	0	0	0	0	1.349999965896131E+001	3.3132800E-001	-1.0167243E-003	0	0	0.000000000000000E+000	13	0	0	0	0	0	0	0	0	0	0	0	0	0	0	0	0	0
0	0	0	0	0	1.399999964633025E+001	3.3129847E-001	-1.0224471E-003	0	0	0.000000000000000E+000	13	0	0	0	0	0	0	0	0	0	0	0	0	0	0	0	0	0
0	0	0	0	0	1.449999963369919E+001	3.3126932E-001	-1.0167243E-003	0	0	0.000000000000000E+000	13	0	0	0	0	0	0	0	0	0	0	0	0	0	0	0	0	0
0	0	0	0	0	1.499999962106813E+001	3.3123925E-001	-1.0059142E-003	0	0	0.000000000000000E+000	13	0	0	0	0	0	0	0	0	0	0	0	0	0	0	0	0	0
0	0	0	0	0	1.549999960843707E+001	3.3121249E-001	-1.0205396E-003	0	0	0.000000000000000E+000	13	0	0	0	0	0	0	0	0	0	0	0	0	0	0	0	0	0
0	0	0	0	0	1.599999959580600E+001	3.3118758E-001	-1.0097295E-003	0	0	0.000000000000000E+000	13	0	0	0	0	0	0	0	0	0	0	0	0	0	0	0	0	0
0	0	0	0	0	1.649999958317494E+001	3.3116534E-001	-1.0173600E-003	0	0	0.000000000000000E+000	13	0	0	0	0	0	0	0	0	0	0	0	0	0	0	0	0	0
0	0	0	0	0	1.699999957054388E+001	3.3114457E-001	-1.0148166E-003	0	0	0.000000000000000E+000	13	0	0	0	0	0	0	0	0	0	0	0	0	0	0	0	0	0
0	0	0	0	0	1.749999955791282E+001	3.3112460E-001	-1.0078218E-003	0	0	0.000000000000000E+000	13	0	0	0	0	0	0	0	0	0	0	0	0	0	0	0	0	0
0	0	0	0	0	1.799999954528175E+001	3.3110526E-001	-1.0135447E-003	0	0	0.000000000000000E+000	13	0	0	0	0	0	0	0	0	0	0	0	0	0	0	0	0	0
0	0	0	0	0	1.849999953265069E+001	3.3108845E-001	-1.0179960E-003	0	0	0.000000000000000E+000	13	0	0	0	0	0	0	0	0	0	0	0	0	0	0	0	0	0
0	0	0	0	0	1.899999952001963E+001	3.3107251E-001	-1.0148166E-003	0	0	0.000000000000000E+000	13	0	0	0	0	0	0	0	0	0	0	0	0	0	0	0	0	0
0	0	0	0	0	1.949999950738857E+001	3.3105618E-001	-1.0167243E-003	0	0	0.000000000000000E+000	13	0	0	0	0	0	0	0	0	0	0	0	0	0	0	0	0	0
0	0	0	0	0	1.999999949475750E+001	3.3103895E-001	-1.0129089E-003	0	0	0.000000000000000E+000	13	0	0	0	0	0	0	0	0	0	0	0	0	0	0	0	0	0
0	0	0	0	0	2.049999948212644E+001	3.3102545E-001	-1.0173600E-003	0	0	0.000000000000000E+000	13	0	0	0	0	0	0	0	0	0	0	0	0	0	0	0	0	0
0	0	0	0	0	2.099999946949538E+001	3.3101287E-001	-1.0148166E-003	0	0	0.000000000000000E+000	13	0	0	0	0	0	0	0	0	0	0	0	0	0	0	0	0	0
0	0	0	0	0	2.149999945686432E+001	3.3100122E-001	-1.0211753E-003	0	0	0.000000000000000E+000	13	0	0	0	0	0	0	0	0	0	0	0	0	0	0	0	0	0
0	0	0	0	0	2.199999944423325E+001	3.3098963E-001	-1.0154524E-003	0	0	0.000000000000000E+000	13	0	0	0	0	0	0	0	0	0	0	0	0	0	0	0	0	0
0	0	0	0	0	2.249999943160219E+001	3.3097857E-001	-1.0141807E-003	0	0	0.000000000000000E+000	13	0	0	0	0	0	0	0	0	0	0	0	0	0	0	0	0	0
0	0	0	0	0	2.299999941897113E+001	3.3097306E-001	-1.0173600E-003	0	0	0.000000000000000E+000	13	0	0	0	0	0	0	0	0	0	0	0	0	0	0	0	0	0
0	0	0	0	0	2.349999940634007E+001	3.3096445E-001	-1.0160884E-003	0	0	0.000000000000000E+000	13	0	0	0	0	0	0	0	0	0	0	0	0	0	0	0	0	0
0	0	0	0	0	2.399999939370900E+001	3.3095536E-001	-1.0192677E-003	0	0	0.000000000000000E+000	13	0	0	0	0	0	0	0	0	0	0	0	0	0	0	0	0	0
0	0	0	0	0	2.449999938107794E+001	3.3094728E-001	-1.0122730E-003	0	0	0.000000000000000E+000	13	0	0	0	0	0	0	0	0	0	0	0	0	0	0	0	0	0
0	0	0	0	0	2.499999936844688E+001	3.3093798E-001	-1.0078218E-003	0	0	0.000000000000000E+000	13	0	0	0	0	0	0	0	0	0	0	0	0	0	0	0	0	0
0	0	0	0	0	2.549999935581582E+001	3.3093363E-001	-1.0186319E-003	0	0	0.000000000000000E+000	13	0	0	0	0	0	0	0	0	0	0	0	0	0	0	0	0	0
0	0	0	0	0	2.599999934318475E+001	3.3092767E-001	-1.0211753E-003	0	0	0.000000000000000E+000	13	0	0	0	0	0	0	0	0	0	0	0	0	0	0	0	0	0
0	0	0	0	0	2.649999933055369E+001	3.3092433E-001	-1.0167243E-003	0	0	0.000000000000000E+000	13	0	0	0	0	0	0	0	0	0	0	0	0	0	0	0	0	0
0	0	0	0	0	2.699999931792263E+001	3.3091933E-001	-1.0179960E-003	0	0	0.000000000000000E+000	13	0	0	0	0	0	0	0	0	0	0	0	0	0	0	0	0	0
0	0	0	0	0	2.749999930529157E+001	3.3091575E-001	-1.0218114E-003	0	0	0.000000000000000E+000	13	0	0	0	0	0	0	0	0	0	0	0	0	0	0	0	0	0
0	0	0	0	0	2.799999929266050E+001	3.3091354E-001	-1.0179960E-003	0	0	0.000000000000000E+000	13	0	0	0	0	0	0	0	0	0	0	0	0	0	0	0	0	0
0	0	0	0	0	2.849999928002944E+001	3.3091152E-001	-1.0148166E-003	0	0	0.000000000000000E+000	13	0	0	0	0	0	0	0	0	0	0	0	0	0	0	0	0	0
0	0	0	0	0	2.899999926739838E+001	3.3091047E-001	-1.0122730E-003	0	0	0.000000000000000E+000	13	0	0	0	0	0	0	0	0	0	0	0	0	0	0	0	0	0
0	0	0	0	0	2.949999925476732E+001	3.3090618E-001	-1.0186319E-003	0	0	0.000000000000000E+000	13	0	0	0	0	0	0	0	0	0	0	0	0	0	0	0	0	0
0	0	0	0	0	2.999999924213625E+001	3.3090392E-001	-1.0122730E-003	0	0	0.000000000000000E+000	13	0	0	0	0	0	0	0	0	0	0	0	0	0	0	0	0	0
0	0	0	0	0	3.049999922950519E+001	3.3090168E-001	-1.0122730E-003	0	0	0.000000000000000E+000	13	0	0	0	0	0	0	0	0	0	0	0	0	0	0	0	0	0
0	0	0	0	0	3.099999921687413E+001	3.3090129E-001	-1.0173600E-003	0	0	0.000000000000000E+000	13	0	0	0	0	0	0	0	0	0	0	0	0	0	0	0	0	0
0	0	0	0	0	3.149999920424307E+001	3.3090267E-001	-1.0154524E-003	0	0	0.000000000000000E+000	13	0	0	0	0	0	0	0	0	0	0	0	0	0	0	0	0	0
0	0	0	0	0	3.199999919161201E+001	3.3090115E-001	-1.0071859E-003	0	0	0.000000000000000E+000	13	0	0	0	0	0	0	0	0	0	0	0	0	0	0	0	0	0
0	0	0	0	0	3.249999917898094E+001	3.3090442E-001	-1.0122730E-003	0	0	0.000000000000000E+000	13	0	0	0	0	0	0	0	0	0	0	0	0	0	0	0	0	0
0	0	0	0	0	3.299999916634988E+001	3.3090171E-001	-1.0110013E-003	0	0	0.000000000000000E+000	13	0	0	0	0	0	0	0	0	0	0	0	0	0	0	0	0	0
0	0	0	0	0	3.349999915371882E+001	3.3090460E-001	-1.0167243E-003	0	0	0.000000000000000E+000	13	0	0	0	0	0	0	0	0	0	0	0	0	0	0	0	0	0
0	0	0	0	0	3.399999914108776E+001	3.3090425E-001	-1.0065500E-003	0	0	0.000000000000000E+000	13	0	0	0	0	0	0	0	0	0	0	0	0	0	0	0	0	0
0	0	0	0	0	3.449999912845669E+001	3.3091086E-001	-1.0230830E-003	0	0	0.000000000000000E+000	13	0	0	0	0	0	0	0	0	0	0	0	0	0	0	0	0	0
0	0	0	0	0	3.499999911582563E+001	3.3091030E-001	-1.0135447E-003	0	0	0.000000000000000E+000	13	0	0	0	0	0	0	0	0	0	0	0	0	0	0	0	0	0
0	0	0	0	0	3.549999910319457E+001	3.3091360E-001	-1.0116372E-003	0	0	0.000000000000000E+000	13	0	0	0	0	0	0	0	0	0	0	0	0	0	0	0	0	0
0	0	0	0	0	3.599999909056351E+001	3.3091670E-001	-1.0129089E-003	0	0	0.000000000000000E+000	13	0	0	0	0	0	0	0	0	0	0	0	0	0	0	0	0	0
0	0	0	0	0	3.649999907793244E+001	3.3091959E-001	-1.0154524E-003	0	0	0.000000000000000E+000	13	0	0	0	0	0	0	0	0	0	0	0	0	0	0	0	0	0
0	0	0	0	0	3.699999906530138E+001	3.3092564E-001	-1.0173600E-003	0	0	0.000000000000000E+000	13	0	0	0	0	0	0	0	0	0	0	0	0	0	0	0	0	0
0	0	0	0	0	3.749999905267032E+001	3.3092865E-001	-1.0173600E-003	0	0	0.000000000000000E+000	13	0	0	0	0	0	0	0	0	0	0	0	0	0	0	0	0	0
0	0	0	0	0	3.799999904003926E+001	3.3093399E-001	-1.0122730E-003	0	0	0.000000000000000E+000	13	0	0	0	0	0	0	0	0	0	0	0	0	0	0	0	0	0
0	0	0	0	0	3.849999902740819E+001	3.3093607E-001	-1.0122730E-003	0	0	0.000000000000000E+000	13	0	0	0	0	0	0	0	0	0	0	0	0	0	0	0	0	0
0	0	0	0	0	3.899999901477713E+001	3.3094311E-001	-1.0122730E-003	0	0	0.000000000000000E+000	13	0	0	0	0	0	0	0	0	0	0	0	0	0	0	0	0	0
0	0	0	0	0	3.949999900214607E+001	3.3094659E-001	-1.0141807E-003	0	0	0.000000000000000E+000	13	0	0	0	0	0	0	0	0	0	0	0	0	0	0	0	0	0
0	0	0	0	0	3.999999898951501E+001	3.3095202E-001	-1.0154524E-003	0	0	0.000000000000000E+000	13	0	0	0	0	0	0	0	0	0	0	0	0	0	0	0	0	0
0	0	0	0	0	4.049999897688394E+001	3.3096048E-001	-1.0192677E-003	0	0	0.000000000000000E+000	13	0	0	0	0	0	0	0	0	0	0	0	0	0	0	0	0	0
0	0	0	0	0	4.099999896425288E+001	3.3096835E-001	-1.0192677E-003	0	0	0.000000000000000E+000	13	0	0	0	0	0	0	0	0	0	0	0	0	0	0	0	0	0
0	0	0	0	0	4.149999895162182E+001	3.3097506E-001	-1.0148166E-003	0	0	0.000000000000000E+000	13	0	0	0	0	0	0	0	0	0	0	0	0	0	0	0	0	0
0	0	0	0	0	4.199999893899076E+001	3.3097935E-001	-1.0116372E-003	0	0	0.000000000000000E+000	13	0	0	0	0	0	0	0	0	0	0	0	0	0	0	0	0	0
0	0	0	0	0	4.249999892635969E+001	3.3098528E-001	-1.0148166E-003	0	0	0.000000000000000E+000	13	0	0	0	0	0	0	0	0	0	0	0	0	0	0	0	0	0
0	0	0	0	0	4.299999891372863E+001	3.3099690E-001	-1.0154524E-003	0	0	0.000000000000000E+000	13	0	0	0	0	0	0	0	0	0	0	0	0	0	0	0	0	0
0	0	0	0	0	4.349999890109757E+001	3.3100289E-001	-1.0110013E-003	0	0	0.000000000000000E+000	13	0	0	0	0	0	0	0	0	0	0	0	0	0	0	0	0	0
0	0	0	0	0	4.399999888846651E+001	3.3101019E-001	-1.0103654E-003	0	0	0.000000000000000E+000	13	0	0	0	0	0	0	0	0	0	0	0	0	0	0	0	0	0
0	0	0	0	0	4.449999887583544E+001	3.3101705E-001	-1.0141807E-003	0	0	0.000000000000000E+000	13	0	0	0	0	0	0	0	0	0	0	0	0	0	0	0	0	0
0	0	0	0	0	4.499999886320438E+001	3.3102810E-001	-1.0135447E-003	0	0	0.000000000000000E+000	13	0	0	0	0	0	0	0	0	0	0	0	0	0	0	0	0	0
0	0	0	0	0	4.549999885057332E+001	3.3103320E-001	-1.0160884E-003	0	0	0.000000000000000E+000	13	0	0	0	0	0	0	0	0	0	0	0	0	0	0	0	0	0
0	0	0	0	0	4.599999883794226E+001	3.3104199E-001	-1.0110013E-003	0	0	0.000000000000000E+000	13	0	0	0	0	0	0	0	0	0	0	0	0	0	0	0	0	0
0	0	0	0	0	4.649999882531120E+001	3.3105212E-001	-1.0135447E-003	0	0	0.000000000000000E+000	13	0	0	0	0	0	0	0	0	0	0	0	0	0	0	0	0	0
0	0	0	0	0	4.699999881268013E+001	3.3105758E-001	-1.0154524E-003	0	0	0.000000000000000E+000	13	0	0	0	0	0	0	0	0	0	0	0	0	0	0	0	0	0
0	0	0	0	0	4.749999880004907E+001	3.3106795E-001	-1.0205396E-003	0	0	0.000000000000000E+000	13	0	0	0	0	0	0	0	0	0	0	0	0	0	0	0	0	0
0	0	0	0	0	4.799999878741801E+001	3.3107933E-001	-1.0173600E-003	0	0	0.000000000000000E+000	13	0	0	0	0	0	0	0	0	0	0	0	0	0	0	0	0	0
0	0	0	0	0	4.849999877478695E+001	3.3109134E-001	-1.0129089E-003	0	0	0.000000000000000E+000	13	0	0	0	0	0	0	0	0	0	0	0	0	0	0	0	0	0
0	0	0	0	0	4.899999876215588E+001	3.3110189E-001	-1.0065500E-003	0	0	0.000000000000000E+000	13	0	0	0	0	0	0	0	0	0	0	0	0	0	0	0	0	0
0	0	0	0	0	4.949999874952482E+001	3.3110943E-001	-1.0097295E-003	0	0	0.000000000000000E+000	13	0	0	0	0	0	0	0	0	0	0	0	0	0	0	0	0	0
0	0	0	0	0	4.999999873689376E+001	3.3112213E-001	-1.0148166E-003	0	0	0.000000000000000E+000	13	0	0	0	0	0	0	0	0	0	0	0	0	0	0	0	0	0
0	0	0	0	0	5.049999872426270E+001	3.3113307E-001	-1.0097295E-003	0	0	0.000000000000000E+000	13	0	0	0	0	0	0	0	0	0	0	0	0	0	0	0	0	0
0	0	0	0	0	5.099999871163163E+001	3.3114421E-001	-1.0141807E-003	0	0	0.000000000000000E+000	13	0	0	0	0	0	0	0	0	0	0	0	0	0	0	0	0	0
0	0	0	0	0	5.149999869900057E+001	3.3115342E-001	-1.0186319E-003	0	0	0.000000000000000E+000	13	0	0	0	0	0	0	0	0	0	0	0	0	0	0	0	0	0
0	0	0	0	0	5.199999868636951E+001	3.3116332E-001	-1.0199037E-003	0	0	0.000000000000000E+000	13	0	0	0	0	0	0	0	0	0	0	0	0	0	0	0	0	0
0	0	0	0	0	5.249999867373845E+001	3.3117372E-001	-1.0192677E-003	0	0	0.000000000000000E+000	13	0	0	0	0	0	0	0	0	0	0	0	0	0	0	0	0	0
0	0	0	0	0	5.299999866110738E+001	3.3118254E-001	-1.0110013E-003	0	0	0.000000000000000E+000	13	0	0	0	0	0	0	0	0	0	0	0	0	0	0	0	0	0
0	0	0	0	0	5.349999864847632E+001	3.3119532E-001	-1.0224471E-003	0	0	0.000000000000000E+000	13	0	0	0	0	0	0	0	0	0	0	0	0	0	0	0	0	0
0	0	0	0	0	5.399999863584526E+001	3.3120936E-001	-1.0071859E-003	0	0	0.000000000000000E+000	13	0	0	0	0	0	0	0	0	0	0	0	0	0	0	0	0	0
0	0	0	0	0	5.449999862321420E+001	3.3121800E-001	-1.0192677E-003	0	0	0.000000000000000E+000	13	0	0	0	0	0	0	0	0	0	0	0	0	0	0	0	0	0
0	0	0	0	0	5.499999861058313E+001	3.3123052E-001	-1.0135447E-003	0	0	0.000000000000000E+000	13	0	0	0	0	0	0	0	0	0	0	0	0	0	0	0	0	0
0	0	0	0	0	5.549999859795207E+001	3.3124104E-001	-1.0173600E-003	0	0	0.000000000000000E+000	13	0	0	0	0	0	0	0	0	0	0	0	0	0	0	0	0	0
0	0	0	0	0	5.599999858532101E+001	3.3125287E-001	-1.0148166E-003	0	0	0.000000000000000E+000	13	0	0	0	0	0	0	0	0	0	0	0	0	0	0	0	0	0
0	0	0	0	0	5.649999857268995E+001	3.3126757E-001	-1.0148166E-003	0	0	0.000000000000000E+000	13	0	0	0	0	0	0	0	0	0	0	0	0	0	0	0	0	0
0	0	0	0	0	5.699999856005888E+001	3.3127928E-001	-1.0192677E-003	0	0	0.000000000000000E+000	13	0	0	0	0	0	0	0	0	0	0	0	0	0	0	0	0	0
0	0	0	0	0	5.749999854742782E+001	3.3129334E-001	-1.0154524E-003	0	0	0.000000000000000E+000	13	0	0	0	0	0	0	0	0	0	0	0	0	0	0	0	0	0
0	0	0	0	0	5.799999853479676E+001	3.3130205E-001	-1.0040065E-003	0	0	0.000000000000000E+000	13	0	0	0	0	0	0	0	0	0	0	0	0	0	0	0	0	0
0	0	0	0	0	5.849999852216570E+001	3.3131659E-001	-1.0167243E-003	0	0	0.000000000000000E+000	13	0	0	0	0	0	0	0	0	0	0	0	0	0	0	0	0	0
0	0	0	0	0	5.899999850953463E+001	3.3132651E-001	-1.0192677E-003	0	0	0.000000000000000E+000	13	0	0	0	0	0	0	0	0	0	0	0	0	0	0	0	0	0
0	0	0	0	0	5.949999849690357E+001	3.3134219E-001	-1.0179960E-003	0	0	0.000000000000000E+000	13	0	0	0	0	0	0	0	0	0	0	0	0	0	0	0	0	0
0	0	0	0	0	5.999999848427251E+001	3.3135363E-001	-1.0179960E-003	0	0	0.000000000000000E+000	13	0	0	0	0	0	0	0	0	0	0	0	0	0	0	0	0	0
0	0	0	0	0	6.049999847164145E+001	3.3136722E-001	-1.0192677E-003	0	0	0.000000000000000E+000	13	0	0	0	0	0	0	0	0	0	0	0	0	0	0	0	0	0
0	0	0	0	0	6.099999845901039E+001	3.3137935E-001	-1.0192677E-003	0	0	0.000000000000000E+000	13	0	0	0	0	0	0	0	0	0	0	0	0	0	0	0	0	0
0	0	0	0	0	6.149999844637932E+001	3.3138949E-001	-1.0186319E-003	0	0	0.000000000000000E+000	13	0	0	0	0	0	0	0	0	0	0	0	0	0	0	0	0	0
0	0	0	0	0	6.199999843374826E+001	3.3140370E-001	-1.0192677E-003	0	0	0.000000000000000E+000	13	0	0	0	0	0	0	0	0	0	0	0	0	0	0	0	0	0
0	0	0	0	0	6.249999842111720E+001	3.3141813E-001	-1.0173600E-003	0	0	0.000000000000000E+000	13	0	0	0	0	0	0	0	0	0	0	0	0	0	0	0	0	0
0	0	0	0	0	6.299999840848614E+001	3.3143058E-001	-1.0122730E-003	0	0	0.000000000000000E+000	13	0	0	0	0	0	0	0	0	0	0	0	0	0	0	0	0	0
0	0	0	0	0	6.349999839585507E+001	3.3144656E-001	-1.0097295E-003	0	0	0.000000000000000E+000	13	0	0	0	0	0	0	0	0	0	0	0	0	0	0	0	0	0
0	0	0	0	0	6.399999838322401E+001	3.3145836E-001	-1.0148166E-003	0	0	0.000000000000000E+000	13	0	0	0	0	0	0	0	0	0	0	0	0	0	0	0	0	0
0	0	0	0	0	6.449999837059295E+001	3.3147284E-001	-1.0122730E-003	0	0	0.000000000000000E+000	13	0	0	0	0	0	0	0	0	0	0	0	0	0	0	0	0	0
0	0	0	0	0	6.499999835796189E+001	3.3148479E-001	-1.0141807E-003	0	0	0.000000000000000E+000	13	0	0	0	0	0	0	0	0	0	0	0	0	0	0	0	0	0
0	0	0	0	0	6.549999834533082E+001	3.3149636E-001	-1.0205396E-003	0	0	0.000000000000000E+000	13	0	0	0	0	0	0	0	0	0	0	0	0	0	0	0	0	0
0	0	0	0	0	6.599999833269976E+001	3.3150727E-001	-1.0148166E-003	0	0	0.000000000000000E+000	13	0	0	0	0	0	0	0	0	0	0	0	0	0	0	0	0	0
0	0	0	0	0	6.649999832006870E+001	3.3152241E-001	-1.0167243E-003	0	0	0.000000000000000E+000	13	0	0	0	0	0	0	0	0	0	0	0	0	0	0	0	0	0
0	0	0	0	0	6.699999830743764E+001	3.3153513E-001	-1.0160884E-003	0	0	0.000000000000000E+000	13	0	0	0	0	0	0	0	0	0	0	0	0	0	0	0	0	0
0	0	0	0	0	6.749999829480657E+001	3.3155116E-001	-1.0243548E-003	0	0	0.000000000000000E+000	13	0	0	0	0	0	0	0	0	0	0	0	0	0	0	0	0	0
0	0	0	0	0	6.799999828217551E+001	3.3155924E-001	-1.0129089E-003	0	0	0.000000000000000E+000	13	0	0	0	0	0	0	0	0	0	0	0	0	0	0	0	0	0
0	0	0	0	0	6.849999826954445E+001	3.3157599E-001	-1.0154524E-003	0	0	0.000000000000000E+000	13	0	0	0	0	0	0	0	0	0	0	0	0	0	0	0	0	0
0	0	0	0	0	6.899999825691339E+001	3.3159205E-001	-1.0160884E-003	0	0	0.000000000000000E+000	13	0	0	0	0	0	0	0	0	0	0	0	0	0	0	0	0	0
0	0	0	0	0	6.949999824428232E+001	3.3160457E-001	-1.0154524E-003	0	0	0.000000000000000E+000	13	0	0	0	0	0	0	0	0	0	0	0	0	0	0	0	0	0
0	0	0	0	0	6.999999823165126E+001	3.3161905E-001	-1.0173600E-003	0	0	0.000000000000000E+000	13	0	0	0	0	0	0	0	0	0	0	0	0	0	0	0	0	0
0	0	0	0	0	7.049999821902020E+001	3.3163327E-001	-1.0160884E-003	0	0	0.000000000000000E+000	13	0	0	0	0	0	0	0	0	0	0	0	0	0	0	0	0	0
0	0	0	0	0	7.099999820638914E+001	3.3164489E-001	-1.0167243E-003	0	0	0.000000000000000E+000	13	0	0	0	0	0	0	0	0	0	0	0	0	0	0	0	0	0
0	0	0	0	0	7.149999819375807E+001	3.3166063E-001	-1.0167243E-003	0	0	0.000000000000000E+000	13	0	0	0	0	0	0	0	0	0	0	0	0	0	0	0	0	0
0	0	0	0	0	7.199999818112701E+001	3.3167443E-001	-1.0148166E-003	0	0	0.000000000000000E+000	13	0	0	0	0	0	0	0	0	0	0	0	0	0	0	0	0	0
0	0	0	0	0	7.249999816849595E+001	3.3168590E-001	-1.0122730E-003	0	0	0.000000000000000E+000	13	0	0	0	0	0	0	0	0	0	0	0	0	0	0	0	0	0
0	0	0	0	0	7.299999815586489E+001	3.3170310E-001	-1.0237190E-003	0	0	0.000000000000000E+000	13	0	0	0	0	0	0	0	0	0	0	0	0	0	0	0	0	0
0	0	0	0	0	7.349999814323382E+001	3.3171305E-001	-1.0186319E-003	0	0	0.000000000000000E+000	13	0	0	0	0	0	0	0	0	0	0	0	0	0	0	0	0	0
0	0	0	0	0	7.399999813060276E+001	3.3172679E-001	-1.0199037E-003	0	0	0.000000000000000E+000	13	0	0	0	0	0	0	0	0	0	0	0	0	0	0	0	0	0
0	0	0	0	0	7.449999811797170E+001	3.3174345E-001	-1.0173600E-003	0	0	0.000000000000000E+000	13	0	0	0	0	0	0	0	0	0	0	0	0	0	0	0	0	0
0	0	0	0	0	7.499999810534064E+001	3.3175504E-001	-1.0199037E-003	0	0	0.000000000000000E+000	13	0	0	0	0	0	0	0	0	0	0	0	0	0	0	0	0	0
0	0	0	0	0	7.549999809270957E+001	3.3177114E-001	-1.0154524E-003	0	0	0.000000000000000E+000	13	0	0	0	0	0	0	0	0	0	0	0	0	0	0	0	0	0
0	0	0	0	0	7.599999808007851E+001	3.3178329E-001	-1.0199037E-003	0	0	0.000000000000000E+000	13	0	0	0	0	0	0	0	0	0	0	0	0	0	0	0	0	0
0	0	0	0	0	7.649999806744745E+001	3.3179876E-001	-1.0116372E-003	0	0	0.000000000000000E+000	13	0	0	0	0	0	0	0	0	0	0	0	0	0	0	0	0	0
0	0	0	0	0	7.699999805481639E+001	3.3181468E-001	-1.0186319E-003	0	0	0.000000000000000E+000	13	0	0	0	0	0	0	0	0	0	0	0	0	0	0	0	0	0
0	0	0	0	0	7.749999804218533E+001	3.3182877E-001	-1.0186319E-003	0	0	0.000000000000000E+000	13	0	0	0	0	0	0	0	0	0	0	0	0	0	0	0	0	0
0	0	0	0	0	7.799999802955426E+001	3.3184075E-001	-1.0192677E-003	0	0	0.000000000000000E+000	13	0	0	0	0	0	0	0	0	0	0	0	0	0	0	0	0	0
0	0	0	0	0	7.849999801692320E+001	3.3185652E-001	-1.0186319E-003	0	0	0.000000000000000E+000	13	0	0	0	0	0	0	0	0	0	0	0	0	0	0	0	0	0
0	0	0	0	0	7.899999800429214E+001	3.3186930E-001	-1.0160884E-003	0	0	0.000000000000000E+000	13	0	0	0	0	0	0	0	0	0	0	0	0	0	0	0	0	0
0	0	0	0	0	7.949999799166108E+001	3.3188522E-001	-1.0148166E-003	0	0	0.000000000000000E+000	13	0	0	0	0	0	0	0	0	0	0	0	0	0	0	0	0	0
0	0	0	0	0	7.999999797903001E+001	3.3190006E-001	-1.0179960E-003	0	0	0.000000000000000E+000	13	0	0	0	0	0	0	0	0	0	0	0	0	0	0	0	0	0
0	0	0	0	0	8.049999796639895E+001	3.3191764E-001	-1.0090936E-003	0	0	0.000000000000000E+000	13	0	0	0	0	0	0	0	0	0	0	0	0	0	0	0	0	0
0	0	0	0	0	8.099999795376789E+001	3.3192977E-001	-1.0148166E-003	0	0	0.000000000000000E+000	13	0	0	0	0	0	0	0	0	0	0	0	0	0	0	0	0	0
0	0	0	0	0	8.149999794113683E+001	3.3194494E-001	-1.0141807E-003	0	0	0.000000000000000E+000	13	0	0	0	0	0	0	0	0	0	0	0	0	0	0	0	0	0
0	0	0	0	0	8.199999792850576E+001	3.3195725E-001	-1.0110013E-003	0	0	0.000000000000000E+000	13	0	0	0	0	0	0	0	0	0	0	0	0	0	0	0	0	0
0	0	0	0	0	8.249999791587470E+001	3.3197224E-001	-1.0110013E-003	0	0	0.000000000000000E+000	13	0	0	0	0	0	0	0	0	0	0	0	0	0	0	0	0	0
0	0	0	0	0	8.299999790324364E+001	3.3198544E-001	-1.0122730E-003	0	0	0.000000000000000E+000	13	0	0	0	0	0	0	0	0	0	0	0	0	0	0	0	0	0
0	0	0	0	0	8.349999789061258E+001	3.3199787E-001	-1.0071859E-003	0	0	0.000000000000000E+000	13	0	0	0	0	0	0	0	0	0	0	0	0	0	0	0	0	0
0	0	0	0	0	8.399999787798151E+001	3.3201334E-001	-1.0148166E-003	0	0	0.000000000000000E+000	13	0	0	0	0	0	0	0	0	0	0	0	0	0	0	0	0	0
0	0	0	0	0	8.449999786535045E+001	3.3202496E-001	-1.0173600E-003	0	0	0.000000000000000E+000	13	0	0	0	0	0	0	0	0	0	0	0	0	0	0	0	0	0
0	0	0	0	0	8.499999785271939E+001	3.3203861E-001	-1.0186319E-003	0	0	0.000000000000000E+000	13	0	0	0	0	0	0	0	0	0	0	0	0	0	0	0	0	0
0	0	0	0	0	8.549999784008833E+001	3.3205488E-001	-1.0179960E-003	0	0	0.000000000000000E+000	13	0	0	0	0	0	0	0	0	0	0	0	0	0	0	0	0	0
0	0	0	0	0	8.599999782745726E+001	3.3206549E-001	-1.0116372E-003	0	0	0.000000000000000E+000	13	0	0	0	0	0	0	0	0	0	0	0	0	0	0	0	0	0
0	0	0	0	0	8.649999781482620E+001	3.3207995E-001	-1.0135447E-003	0	0	0.000000000000000E+000	13	0	0	0	0	0	0	0	0	0	0	0	0	0	0	0	0	0
0	0	0	0	0	8.699999780219514E+001	3.3209100E-001	-1.0148166E-003	0	0	0.000000000000000E+000	13	0	0	0	0	0	0	0	0	0	0	0	0	0	0	0	0	0
0	0	0	0	0	8.749999778956408E+001	3.3210525E-001	-1.0173600E-003	0	0	0.000000000000000E+000	13	0	0	0	0	0	0	0	0	0	0	0	0	0	0	0	0	0
0	0	0	0	0	8.799999777693301E+001	3.3211833E-001	-1.0211753E-003	0	0	0.000000000000000E+000	13	0	0	0	0	0	0	0	0	0	0	0	0	0	0	0	0	0
0	0	0	0	0	8.849999776430195E+001	3.3213192E-001	-1.0116372E-003	0	0	0.000000000000000E+000	13	0	0	0	0	0	0	0	0	0	0	0	0	0	0	0	0	0
0	0	0	0	0	8.899999775167089E+001	3.3214462E-001	-1.0192677E-003	0	0	0.000000000000000E+000	13	0	0	0	0	0	0	0	0	0	0	0	0	0	0	0	0	0
0	0	0	0	0	8.949999773903983E+001	3.3216086E-001	-1.0205396E-003	0	0	0.000000000000000E+000	13	0	0	0	0	0	0	0	0	0	0	0	0	0	0	0	0	0
0	0	0	0	0	8.999999772640876E+001	3.3217302E-001	-1.0160884E-003	0	0	0.000000000000000E+000	13	0	0	0	0	0	0	0	0	0	0	0	0	0	0	0	0	0
0	0	0	0	0	9.049999771377770E+001	3.3218551E-001	-1.0141807E-003	0	0	0.000000000000000E+000	13	0	0	0	0	0	0	0	0	0	0	0	0	0	0	0	0	0
0	0	0	0	0	9.099999770114664E+001	3.3220109E-001	-1.0179960E-003	0	0	0.000000000000000E+000	13	0	0	0	0	0	0	0	0	0	0	0	0	0	0	0	0	0
0	0	0	0	0	9.149999768851558E+001	3.3221298E-001	-1.0154524E-003	0	0	0.000000000000000E+000	13	0	0	0	0	0	0	0	0	0	0	0	0	0	0	0	0	0
0	0	0	0	0	9.199999767588452E+001	3.3222407E-001	-1.0122730E-003	0	0	0.000000000000000E+000	13	0	0	0	0	0	0	0	0	0	0	0	0	0	0	0	0	0
0	0	0	0	0	9.249999766325345E+001	3.3223614E-001	-1.0103654E-003	0	0	0.000000000000000E+000	13	0	0	0	0	0	0	0	0	0	0	0	0	0	0	0	0	0
0	0	0	0	0	9.299999765062239E+001	3.3224925E-001	-1.0129089E-003	0	0	0.000000000000000E+000	13	0	0	0	0	0	0	0	0	0	0	0	0	0	0	0	0	0
0	0	0	0	0	9.349999763799133E+001	3.3226123E-001	-1.0167243E-003	0	0	0.000000000000000E+000	13	0	0	0	0	0	0	0	0	0	0	0	0	0	0	0	0	0
0	0	0	0	0	9.399999762536027E+001	3.3227479E-001	-1.0129089E-003	0	0	0.000000000000000E+000	13	0	0	0	0	0	0	0	0	0	0	0	0	0	0	0	0	0
0	0	0	0	0	9.449999761272920E+001	3.3228791E-001	-1.0059142E-003	0	0	0.000000000000000E+000	13	0	0	0	0	0	0	0	0	0	0	0	0	0	0	0	0	0
0	0	0	0	0	9.499999760009814E+001	3.3230180E-001	-1.0141807E-003	0	0	0.000000000000000E+000	13	0	0	0	0	0	0	0	0	0	0	0	0	0	0	0	0	0
0	0	0	0	0	9.549999758746708E+001	3.3231497E-001	-1.0129089E-003	0	0	0.000000000000000E+000	13	0	0	0	0	0	0	0	0	0	0	0	0	0	0	0	0	0
0	0	0	0	0	9.599999757483602E+001	3.3232781E-001	-1.0141807E-003	0	0	0.000000000000000E+000	13	0	0	0	0	0	0	0	0	0	0	0	0	0	0	0	0	0
0	0	0	0	0	9.649999756220495E+001	3.3234024E-001	-1.0110013E-003	0	0	0.000000000000000E+000	13	0	0	0	0	0	0	0	0	0	0	0	0	0	0	0	0	0
0	0	0	0	0	9.699999754957389E+001	3.3235183E-001	-1.0230830E-003	0	0	0.000000000000000E+000	13	0	0	0	0	0	0	0	0	0	0	0	0	0	0	0	0	0
0	0	0	0	0	9.749999753694283E+001	3.3236468E-001	-1.0122730E-003	0	0	0.000000000000000E+000	13	0	0	0	0	0	0	0	0	0	0	0	0	0	0	0	0	0
0	0	0	0	0	9.799999752431177E+001	3.3237758E-001	-1.0116372E-003	0	0	0.000000000000000E+000	13	0	0	0	0	0	0	0	0	0	0	0	0	0	0	0	0	0
0	0	0	0	0	9.849999751168070E+001	3.3238983E-001	-1.0224471E-003	0	0	0.000000000000000E+000	13	0	0	0	0	0	0	0	0	0	0	0	0	0	0	0	0	0
0	0	0	0	0	9.899999749904964E+001	3.3240449E-001	-1.0116372E-003	0	0	0.000000000000000E+000	13	0	0	0	0	0	0	0	0	0	0	0	0	0	0	0	0	0
0	0	0	0	0	9.949999748641858E+001	3.3241475E-001	-1.0129089E-003	0	0	0.000000000000000E+000	13	0	0	0	0	0	0	0	0	0	0	0	0	0	0	0	0	0
0	0	0	0	0	9.999999747378752E+001	3.3242905E-001	-1.0199037E-003	0	0	0.000000000000000E+000	13	0	0	0	0	0	0	0	0	0	0	0	0	0	0	0	0	0
0	0	0	0	0	1.004999974611565E+002	3.3244172E-001	-1.0129089E-003	0	0	0.000000000000000E+000	13	0	0	0	0	0	0	0	0	0	0	0	0	0	0	0	0	0
0	0	0	0	0	1.009999974485254E+002	3.3245343E-001	-1.0173600E-003	0	0	0.000000000000000E+000	13	0	0	0	0	0	0	0	0	0	0	0	0	0	0	0	0	0
0	0	0	0	0	1.014999974358943E+002	3.3246484E-001	-1.0160884E-003	0	0	0.000000000000000E+000	13	0	0	0	0	0	0	0	0	0	0	0	0	0	0	0	0	0
0	0	0	0	0	1.019999974232633E+002	3.3247590E-001	-1.0116372E-003	0	0	0.000000000000000E+000	13	0	0	0	0	0	0	0	0	0	0	0	0	0	0	0	0	0
0	0	0	0	0	1.024999974106322E+002	3.3248860E-001	-1.0237190E-003	0	0	0.000000000000000E+000	13	0	0	0	0	0	0	0	0	0	0	0	0	0	0	0	0	0
0	0	0	0	0	1.029999973980011E+002	3.3249736E-001	-1.0116372E-003	0	0	0.000000000000000E+000	13	0	0	0	0	0	0	0	0	0	0	0	0	0	0	0	0	0
0	0	0	0	0	1.034999973853701E+002	3.3250710E-001	-1.0141807E-003	0	0	0.000000000000000E+000	13	0	0	0	0	0	0	0	0	0	0	0	0	0	0	0	0	0
0	0	0	0	0	1.039999973727390E+002	3.3252037E-001	-1.0154524E-003	0	0	0.000000000000000E+000	13	0	0	0	0	0	0	0	0	0	0	0	0	0	0	0	0	0
0	0	0	0	0	1.044999973601080E+002	3.3253473E-001	-1.0129089E-003	0	0	0.000000000000000E+000	13	0	0	0	0	0	0	0	0	0	0	0	0	0	0	0	0	0
0	0	0	0	0	1.049999973474769E+002	3.3254737E-001	-1.0167243E-003	0	0	0.000000000000000E+000	13	0	0	0	0	0	0	0	0	0	0	0	0	0	0	0	0	0
0	0	0	0	0	1.054999973348458E+002	3.3255729E-001	-1.0173600E-003	0	0	0.000000000000000E+000	13	0	0	0	0	0	0	0	0	0	0	0	0	0	0	0	0	0
0	0	0	0	0	1.059999973222148E+002	3.3256966E-001	-1.0249907E-003	0	0	0.000000000000000E+000	13	0	0	0	0	0	0	0	0	0	0	0	0	0	0	0	0	0
0	0	0	0	0	1.064999973095837E+002	3.3258376E-001	-1.0154524E-003	0	0	0.000000000000000E+000	13	0	0	0	0	0	0	0	0	0	0	0	0	0	0	0	0	0
0	0	0	0	0	1.069999972969526E+002	3.3259344E-001	-1.0160884E-003	0	0	0.000000000000000E+000	13	0	0	0	0	0	0	0	0	0	0	0	0	0	0	0	0	0
0	0	0	0	0	1.074999972843216E+002	3.3260575E-001	-1.0211753E-003	0	0	0.000000000000000E+000	13	0	0	0	0	0	0	0	0	0	0	0	0	0	0	0	0	0
0	0	0	0	0	1.079999972716905E+002	3.3261594E-001	-1.0199037E-003	0	0	0.000000000000000E+000	13	0	0	0	0	0	0	0	0	0	0	0	0	0	0	0	0	0
0	0	0	0	0	1.084999972590595E+002	3.3262238E-001	-1.0173600E-003	0	0	0.000000000000000E+000	13	0	0	0	0	0	0	0	0	0	0	0	0	0	0	0	0	0
0	0	0	0	0	1.089999972464284E+002	3.3263597E-001	-1.0129089E-003	0	0	0.000000000000000E+000	13	0	0	0	0	0	0	0	0	0	0	0	0	0	0	0	0	0
0	0	0	0	0	1.094999972337973E+002	3.3264738E-001	-1.0135447E-003	0	0	0.000000000000000E+000	13	0	0	0	0	0	0	0	0	0	0	0	0	0	0	0	0	0
0	0	0	0	0	1.099999972211663E+002	3.3265647E-001	-1.0192677E-003	0	0	0.000000000000000E+000	13	0	0	0	0	0	0	0	0	0	0	0	0	0	0	0	0	0
0	0	0	0	0	1.104999972085352E+002	3.3266529E-001	-1.0160884E-003	0	0	0.000000000000000E+000	13	0	0	0	0	0	0	0	0	0	0	0	0	0	0	0	0	0
0	0	0	0	0	1.109999971959041E+002	3.3267891E-001	-1.0186319E-003	0	0	0.000000000000000E+000	13	0	0	0	0	0	0	0	0	0	0	0	0	0	0	0	0	0
0	0	0	0	0	1.114999971832731E+002	3.3269146E-001	-1.0135447E-003	0	0	0.000000000000000E+000	13	0	0	0	0	0	0	0	0	0	0	0	0	0	0	0	0	0
0	0	0	0	0	1.119999971706420E+002	3.3270025E-001	-1.0186319E-003	0	0	0.000000000000000E+000	13	0	0	0	0	0	0	0	0	0	0	0	0	0	0	0	0	0
0	0	0	0	0	1.124999971580110E+002	3.3271107E-001	-1.0167243E-003	0	0	0.000000000000000E+000	13	0	0	0	0	0	0	0	0	0	0	0	0	0	0	0	0	0
0	0	0	0	0	1.129999971453799E+002	3.3271956E-001	-1.0059142E-003	0	0	0.000000000000000E+000	13	0	0	0	0	0	0	0	0	0	0	0	0	0	0	0	0	0
0	0	0	0	0	1.134999971327488E+002	3.3273113E-001	-1.0046425E-003	0	0	0.000000000000000E+000	13	0	0	0	0	0	0	0	0	0	0	0	0	0	0	0	0	0
0	0	0	0	0	1.139999971201178E+002	3.3274040E-001	-1.0148166E-003	0	0	0.000000000000000E+000	13	0	0	0	0	0	0	0	0	0	0	0	0	0	0	0	0	0
0	0	0	0	0	1.144999971074867E+002	3.3274940E-001	-1.0160884E-003	0	0	0.000000000000000E+000	13	0	0	0	0	0	0	0	0	0	0	0	0	0	0	0	0	0
0	0	0	0	0	1.149999970948556E+002	3.3275953E-001	-1.0141807E-003	0	0	0.000000000000000E+000	13	0	0	0	0	0	0	0	0	0	0	0	0	0	0	0	0	0
0	0	0	0	0	1.154999970822246E+002	3.3276743E-001	-1.0186319E-003	0	0	0.000000000000000E+000	13	0	0	0	0	0	0	0	0	0	0	0	0	0	0	0	0	0
0	0	0	0	0	1.159999970695935E+002	3.3277926E-001	-1.0065500E-003	0	0	0.000000000000000E+000	13	0	0	0	0	0	0	0	0	0	0	0	0	0	0	0	0	0
0	0	0	0	0	1.164999970569625E+002	3.3279145E-001	-1.0154524E-003	0	0	0.000000000000000E+000	13	0	0	0	0	0	0	0	0	0	0	0	0	0	0	0	0	0
0	0	0	0	0	1.169999970443314E+002	3.3279923E-001	-1.0224471E-003	0	0	0.000000000000000E+000	13	0	0	0	0	0	0	0	0	0	0	0	0	0	0	0	0	0
0	0	0	0	0	1.174999970317003E+002	3.3280599E-001	-1.0179960E-003	0	0	0.000000000000000E+000	13	0	0	0	0	0	0	0	0	0	0	0	0	0	0	0	0	0
0	0	0	0	0	1.179999970190693E+002	3.3281657E-001	-1.0160884E-003	0	0	0.000000000000000E+000	13	0	0	0	0	0	0	0	0	0	0	0	0	0	0	0	0	0
0	0	0	0	0	1.184999970064382E+002	3.3282426E-001	-1.0116372E-003	0	0	0.000000000000000E+000	13	0	0	0	0	0	0	0	0	0	0	0	0	0	0	0	0	0
0	0	0	0	0	1.189999969938071E+002	3.3283582E-001	-1.0154524E-003	0	0	0.000000000000000E+000	13	0	0	0	0	0	0	0	0	0	0	0	0	0	0	0	0	0
0	0	0	0	0	1.194999969811761E+002	3.3284155E-001	-1.0116372E-003	0	0	0.000000000000000E+000	13	0	0	0	0	0	0	0	0	0	0	0	0	0	0	0	0	0
0	0	0	0	0	1.199999969685450E+002	3.3285284E-001	-1.0179960E-003	0	0	0.000000000000000E+000	13	0	0	0	0	0	0	0	0	0	0	0	0	0	0	0	0	0
0	0	0	0	0	1.200501969672769E+002	3.3285785E-001	-1.0135447E-003	0	0	0.000000000000000E+000	13	0	0	0	0	0	0	0	0	0	0	0	0	0	0	0	0	0